0.11602138,0.159035544,0.207518529,0.263963091,0.326673915,0.390287416,0.447873007,0.493536273,0.524340323,0.540826674,0.546143197,0.544396542,0.539072426,0.532157947,0.524130251,0.514536305,0.502703929,0.48822367,0.471081798,0.451533602,0.429898023,0.406438315,0.381409731,0.355241126,0.328720091,0.303029651,0.279565246,0.259595253,0.243921612,0.232688571,0.225400366,0.221114159,0.218721882,0.217223737,0.2159099,0.21440309,0.212573292,0.210393671,0.207824497,0.204776545,0.201148067,0.196894494,0.192090167,0.186954699,0.181823924,0.177055719,0.172891731,0.169337879,0.166142193,0.162911434,0.159331627,0.15538661,0.151443496,0.148112371,0.145886717,0.144706677,0.143701619,0.141375914,0.136340438,0.128393226,0.119461247,0.113822782,0.117251196,0.135200966,0.170674271,0.222679008,0.286029782,0.352684495,0.414113542,0.463729865,0.49841824,0.518673689,0.52751607,0.528836066,0.525930258,0.520724798,0.513772958,0.504771697,0.493207352,0.478810562,0.46168864,0.442198494,0.420737063,0.397622446,0.373141151,0.347713164,0.322049828,0.297185792,0.274339402,0.254646888,0.238876902,0.227239856,0.219364156,0.214441247,0.211474787,0.209535756,0.207937696,0.206292979,0.204463478,0.202452101,0.20028814,0.197948099,0.195335176,0.192318832,0.188812286,0.184847117,0.180601171,0.176354778,0.172384697,0.168840392,0.165666634,0.162627423,0.159444181,0.155995684,0.152467851,0.149330513,0.147085409,0.145863612,0.145089087,0.143479069,0.139554583,0.132590133,0.123637232,0.11607281,0.115198289,0.126784352,0.154984589,0.200457475,0.259576232,0.325186765,0.388677879,0.442519279,0.482231341,0.507068058,0.519325902,0.522787399,0.521079766,0.516598225,0.510250419,0.501864713,0.490869359,0.476855939,0.459821242,0.440104141,0.418181544,0.394509549,0.369513322,0.343707175,0.317836212,0.292916907,0.27011514,0.250495346,0.234747587,0.223012336,0.214874846,0.209523634,0.206001936,0.203454223,0.201286351,0.19920301,0.197137152,0.195122489,0.193170968,0.191203278,0.189051935,0.186525974,0.183503276,0.180006188,0.176220829,0.172441053,0.16895081,0.165893008,0.163191896,0.16058399,0.157765561,0.154597519,0.151253601,0.148193146,0.145908763,0.144528945,0.143489163,0.14153768,0.137246754,0.129956786,0.120786676,0.113162268,0.112394864,0.124214824,0.152689966,0.198365158,0.25749182,0.322797734,0.385560421,0.438147756,0.476000128,0.498339841,0.507514252,0.507465868,0.502091235,0.494126298,0.484818082,0.474246899,0.461938397,0.447407928,0.430443293,0.411131207,0.389760722,0.366749682,0.342661867,0.318278692,0.294628195,0.272889475,0.254167079,0.23921525,0.228232801,0.220823217,0.216139662,0.213153672,0.210939352,0.208869496,0.206667879,0.204326936,0.201952274,0.199614063,0.197267411,0.194763322,0.191929887,0.18867635,0.185066665,0.181322847,0.177747211,0.174589508,0.171917379,0.169560126,0.167173554,0.164418529,0.161177647,0.15768731,0.154471535,0.152045984,0.15049633,0.149163282,0.146703021,0.141674106,0.133540513,0.123683108,0.115850115,0.115596145,0.128673403,0.158881796,0.206268507,0.266539541,0.332059293,0.39409198,0.445362846,0.481900111,0.503510506,0.512904816,0.514060215,0.510613785,0.504889504,0.497743271,0.489016442,0.478195275,0.464916834,0.449155445,0.431136368,0.411150412,0.389445816,0.366278664,0.342078206,0.317600463,0.293943914,0.272377459,0.254035263,0.239606254,0.229151585,0.222124067,0.21757431,0.214453452,0.21189342,0.209369475,0.206709297,0.203977664,0.201307709,0.198755816,0.196233077,0.193528414,0.190402807,0.186709276,0.182483346,0.177957129,0.173478979,0.169364238,0.16574404,0.162495135,0.159307431,0.155879574,0.152152211,0.148436634,0.145315151,0.143294064,0.142348339,0.14162945,0.139619003,0.134846526,0.126988005,0.117861562,0.111722264,0.114455737,0.131749905,0.166875369,0.219024682,0.283026126,0.350672321,0.413164522,0.463663006,0.498925342,0.519493794,0.528578595,0.53030965,0.528162494,0.524112021,0.518628173,0.511247463,0.501291461,0.48837432,0.472551222,0.45417646,0.433663544,0.411335965,0.387456604,0.362395157,0.33680701,0.311692657,0.288276024,0.267738317,0.250917314,0.238096868,0.22896756,0.222764432,0.218518197,0.215320769,0.212514147,0.209753815,0.206952,0.204149162,0.201379693,0.198588423,0.195626016,0.192315485,0.188550622,0.184371449,0.179970198,0.175614264,0.171518157,0.167732427,0.164121401,0.160463259,0.156636541,0.152788962,0.149359847,0.146878004,0.145579505,0.145034416,0.14405314,0.141083539,0.135091767,0.126620421,0.118493831,0.115653712,0.123923083,0.148008487,0.189508658,0.245827992,0.310569738,0.375333766,0.432198451,0.475871501,0.504699746,0.520299113,0.526181181,0.526103701,0.522834067,0.517680868,0.51073885,0.501512101,0.489522573,0.474642869,0.45710385,0.437302562,0.41560309,0.392275373,0.367601339,0.342064406,0.316486416,0.292005801,0.269878233,0.251174724,0.236503368,0.225868293,0.218715474,0.214135244,0.211132893,0.208864499,0.206764929,0.20454973,0.202125006,0.199467924,0.196538319,0.193255924,0.189542049,0.185392957,0.180935599,0.176422274,0.172149955,0.168332853,0.164992839,0.161938792,0.158870545,0.1555753,0.152115048,0.148874841,0.146385618,0.144952022,0.144260346,0.143233647,0.140360145,0.134520394,0.126043403,0.11748081,0.113566595,0.120108261,0.142051978,0.181442653,0.236182348,0.300225303,0.36522749,0.423003269,0.467785934,0.497427047,0.513206044,0.518551335,0.517374946,0.512737506,0.506255183,0.498246438,0.488310675,0.475944981,0.460919217,0.443337274,0.423492329,0.401698797,0.378242147,0.353475633,0.327982696,0.302675785,0.278736777,0.257393832,0.239620208,0.225883124,0.216047404,0.209467214,0.205218365,0.202371383,0.200201559,0.198272888,0.196394645,0.194502289,0.19253612,0.190377163,0.187862181,0.184858144,0.181348009,0.17747404,0.173504301,0.169726234,0.166313612,0.163238522,0.160289948,0.157211113,0.153896906,0.15053636,0.147581892,0.145497697,0.144368974,0.143584262,0.141853674,0.137730203,0.130559984,0.121494144,0.114012737,0.113490513,0.125709284,0.154751772,0.201123872,0.260985015,0.326941272,0.390158106,0.442941604,0.480746275,0.502884702,0.511844907,0.511717325,0.506507983,0.498991672,0.490376736,0.480647838,0.469216038,0.455499695,0.439223526,0.42043362,0.399371551,0.376376704,0.351907328,0.326651472,0.301615121,0.278074041,0.257353326,0.240503382,0.228009253,0.219663808,0.214661544,0.211871188,0.210172112,0.208723655,0.207079041,0.205131661,0.202953291,0.200619763,0.198107839,0.195299227,0.192070429,0.188406434,0.18446717,0.180559696,0.177016473,0.174032737,0.171549649,0.169262135,0.166773839,0.163835825,0.160534497,0.157286658,0.154581218,0.152557162,0.150655486,0.147634608,0.142124588,0.13362471,0.12353461,0.115631887,0.115523952,0.129025778,0.159975821,0.208400044,0.269907585,0.336704783,0.399877481,0.452004239,0.489042535,0.510824967,0.520173971,0.521224566,0.517763153,0.512205165,0.505415559,0.497171869,0.486861112,0.474031743,0.458611526,0.440823474,0.420975783,0.399319879,0.37608048,0.351627262,0.326657517,0.302245341,0.279687566,0.260191638,0.244539456,0.232876652,0.224716574,0.219148772,0.215154807,0.211898323,0.208883164,0.205943243,0.203105242,0.200413034,0.197803595,0.195084975,0.19201188,0.188409158,0.184274015,0.179799126,0.1752958,0.171047193,0.167164399,0.163529862,0.159878294,0.155992773,0.151915044,0.148029484,0.144915972,0.142981288,0.142032166,0.141064,0.138521762,0.133102176,0.124859705,0.116101066,0.111486758,0.117011234,0.138045012,0.177152901,0.232648653,0.298619157,0.366519283,0.427715942,0.475932791,0.508639931,0.526974042,0.534452106,0.535203821,0.532503014,0.528075878,0.522220728,0.514427569,0.504068874,0.490837738,0.474829418,0.456366901,0.43577218,0.41325949,0.389013316,0.363387189,0.337084587,0.311194773,0.287037632,0.265870852,0.248578856,0.235466885,0.226232615,0.220111693,0.216128138,0.213350747,0.211070049,0.208855414,0.206505751,0.20394541,0.201126862,0.197984614,0.194451942,0.190517619,0.186276858,0.181930942,0.177717247,0.173795894,0.170158218,0.166627406,0.162978455,0.159130488,0.155296279,0.151961875,0.149636349,0.148447197,0.147796519,0.146353028,0.142561316,0.135604829,0.126456866,0.118461734,0.116960954,0.127849454,0.155477292,0.200731317,0.260179747,0.326758026,0.391792111,0.447543358,0.489248132,0.515907951,0.529695934,0.534441513,0.533952839,0.530843587,0.526169212,0.519769087,0.510953008,0.499134058,0.484155786,0.466276764,0.445950354,0.42360199,0.399555369,0.374138079,0.34787803,0.321646641,0.296636887,0.274154902,0.255302907,0.240685604,0.230261622,0.223396399,0.21908679,0.216262343,0.214046124,0.211889313,0.209557238,0.207010064,0.204256309,0.201255104,0.197904356,0.194104987,0.189850306,0.185278168,0.180643072,0.17620946,0.172120282,0.168322194,0.164609793,0.160788877,0.156875478,0.153195103,0.150268356,0.14847217,0.14761802,0.146711176,0.14415433,0.138493632,0.129512558,0.119189789,0.111938636,0.113748054,0.130325135,0.16487714,0.216480314,0.279835646,0.346635537,0.408031789,0.457192605,0.490934824,0.509897685,0.517409583,0.517721856,0.514418245,0.509550054,0.503610998,0.496088496,0.486171776,0.473272145,0.457216556,0.438178352,0.416517804,0.39268857,0.367271818,0.341083322,0.315237921,0.29107206,0.269901152,0.252690083,0.23976987,0.230734562,0.224579761,0.22004161,0.216002377,0.211800249,0.207316534,0.202825,0.198696674,0.195116602,0.19195213,0.188822123,0.185311261,0.181201054,0.176587395,0.171822201,0.167312124,0.163293018,0.159715976,0.15632614,0.152904433,0.149526715,0.146656892,0.14494693,0.144783729,0.145796798,0.146654761,0.145417186,0.14047087,0.131753738,0.121688485,0.115233906,0.118748751,0.137907883,0.17543322,0.22962628,0.294427662,0.36107651,0.420720668,0.466907776,0.496999361,0.512105295,0.515807909,0.512397143,0.50539012,0.496799146,0.487182296,0.476180447,0.463149822,0.447598728,0.429346689,0.408491028,0.385335883,0.360387779,0.334423461,0.308543741,0.28411043,0.262524377,0.244899488,0.231761849,0.222908391,0.21749607,0.214322877,0.212188119,0.210192819,0.207877375,0.205173821,0.202226317,0.199187736,0.196082259,0.19279237,0.189147807,0.185060172,0.180616708,0.176080584,0.171787692,0.16798682,0.164709213,0.161742982,0.158756954,0.155518392,0.15209474,0.148888088,0.146425843,0.144961258,0.14408338,0.14262765,0.139092474,0.132552294,0.123733895,0.115703122,0.113633695,0.123470674,0.14983977,0.194025175,0.252939423,0.319658056,0.385380964,0.442036329,0.484460264,0.511334293,0.524690186,0.528407538,0.526486655,0.521798456,0.515652601,0.508089358,0.498538091,0.486436292,0.471553922,0.454003797,0.43405699,0.411975556,0.387994707,0.362457018,0.336011164,0.309706817,0.284905268,0.262998024,0.245051841,0.231522492,0.222169999,0.216188387,0.212493079,0.210037726,0.208039371,0.206055093,0.203910135,0.201566388,0.198992684,0.196105644,0.192796444,0.189005438,0.184791157,0.180348205,0.175946591,0.171811696,0.168010703,0.164407411,0.160750074,0.156853254,0.152798071,0.148994577,0.146031083,0.144300187,0.143577561,0.142832144,0.140490558,0.135245175,0.127143889,0.118470351,0.113841316,0.119203246,0.139903582,0.17854174,0.233534617,0.299108194,0.366846454,0.428185613,0.476833697,0.51017376,0.529218017,0.537366288,0.538655906,0.536304547,0.531998018,0.52599944,0.517768599,0.50666403,0.492397062,0.475131173,0.455293637,0.433336095,0.409591025,0.384335526,0.357980376,0.331261205,0.305282781,0.281365591,0.260741837,0.244229291,0.232019308,0.223667803,0.218271865,0.214759551,0.212175569,0.209859375,0.207474951,0.20492058,0.202190572,0.199255846,0.196028504,0.192399256,0.188321408,0.183881233,0.179295961,0.174830939,0.17067616,0.166838717,0.16315363,0.159396147,0.155500281,0.151693056,0.148470249,0.146334168,0.145374285,0.144928981,0.143602719,0.139814298,0.13280623,0.123697462,0.116047181,0.115396427,0.127739423,0.157340669,0.204813193,0.266326565,0.334415374,0.400141124,0.455710252,0.496528243,0.521886587,0.534268364,0.537713045,0.536103691,0.532022268,0.526443214,0.519159612,0.509476111,0.496836606,0.481112831,0.4625614,0.441617447,0.418713716,0.394237522,0.368649987,0.342639156,0.317198499,0.293525292,0.272799306,0.255883295,0.243120605,0.234245172,0.228511916,0.224917496,0.222469049,0.220392356,0.218229211,0.215798196,0.213103594,0.210194296,0.207077612,0.203698071,0.199973419,0.195862073,0.19141325,0.18678386,0.182140147,0.177593875,0.173120999,0.168589481,0.163896919
0.239434516,0.234131908,0.228405171,0.222229259,0.216017524,0.210456598,0.206162801,0.203375704,0.201872637,0.201124552,0.200552116,0.199712079,0.198347665,0.196353376,0.19373195,0.190572147,0.187032304,0.183316007,0.179640709,0.176194585,0.173072223,0.170210789,0.167392839,0.164370862,0.16107599,0.157768298,0.154974153,0.153171578,0.152358519,0.151762675,0.149953477,0.145479798,0.137905557,0.128828606,0.122298092,0.1241607,0.140312667,0.174430047,0.226149059,0.290588563,0.359539673,0.423884217,0.476251556,0.51285879,0.533905996,0.542571532,0.543229524,0.539730411,0.53438895,0.527873647,0.519755995,0.50926833,0.495878101,0.479504278,0.460424651,0.439051591,0.415765823,0.390917708,0.364979773,0.338725731,0.313282487,0.289974263,0.270005868,0.25412955,0.242447452,0.23442782,0.229114031,0.225433376,0.222487284,0.21972355,0.216944891,0.214179903,0.211500763,0.208884785,0.206178279,0.203159725,0.199652875,0.195626603,0.191230045,0.186738461,0.182424648,0.178416287,0.174626297,0.170820313,0.166808259,0.162654993,0.158759757,0.155697578,0.153841552,0.152939616,0.151922527,0.149193417,0.143457849,0.13484604,0.125801522,0.121149259,0.127022189,0.148850903,0.189155435,0.246111192,0.313613949,0.382924951,0.445257018,0.494245041,0.527343846,0.545739516,0.553039771,0.553474751,0.550397741,0.54557162,0.539280412,0.530956383,0.51989428,0.505723876,0.488523986,0.468663361,0.44656242,0.422558426,0.396953243,0.37019249,0.343040179,0.316615783,0.292240551,0.271143944,0.254151308,0.241480204,0.232722076,0.227007729,0.223284006,0.220592644,0.21825363,0.21590716,0.213433597,0.210817391,0.208029837,0.204980389,0.201545437,0.19764559,0.193319939,0.188746003,0.184180611,0.179842871,0.175803582,0.171956917,0.16811354,0.164180947,0.160325104,0.156983782,0.154656315,0.153519789,0.153065651,0.152029312,0.148820884,0.142440343,0.133555374,0.125196559,0.122547616,0.131638812,0.157276859,0.201005447,0.260012722,0.327564729,0.394879685,0.453701464,0.498529855,0.527672574,0.542867351,0.547856005,0.546659347,0.542269083,0.536132909,0.528386732,0.518495082,0.505894897,0.490366583,0.472070016,0.451364716,0.428608922,0.404090366,0.378125747,0.351247777,0.324341329,0.298617528,0.275403567,0.255823555,0.240501529,0.229408571,0.22191204,0.216999744,0.213584262,0.210770637,0.208000045,0.205044655,0.201892608,0.198598549,0.195173477,0.191555889,0.187662076,0.183474982,0.179111975,0.174820853,0.170890172,0.167510701,0.164663642,0.162112283,0.159527562,0.15670112,0.153729824,0.151036984,0.149154822,0.148322067,0.148096934,0.147265122,0.144257663,0.138067603,0.129345884,0.121125471,0.118635579,0.127993599,0.154096553,0.198517025,0.258352795,0.326646854,0.394310877,0.452795794,0.496426747,0.523523564,0.536029424,0.538031065,0.533942842,0.527103024,0.519186248,0.510400765,0.500132093,0.487619866,0.472381799,0.454314964,0.433586754,0.410498476,0.38545491,0.359054538,0.332206469,0.306145255,0.282269555,0.261836655,0.245635981,0.233787736,0.225757352,0.220576368,0.217169645,0.214651366,0.212480936,0.210444679,0.208510343,0.206650494,0.204729344,0.202502611,0.199717711,0.196251234,0.192202836,0.18788527,0.183701359,0.179959599,0.176722482,0.173779422,0.17078043,0.167476717,0.16393485,0.160572509,0.157935029,0.156277155,0.155169649,0.153423973,0.149545325,0.142678165,0.133691421,0.125832417,0.124425187,0.135452626,0.163412994,0.209300801,0.269647347,0.337160787,0.402795635,0.45842244,0.499012769,0.523528899,0.534341196,0.535638835,0.531636203,0.525296305,0.517910861,0.509435806,0.499196733,0.486541532,0.471179929,0.453184881,0.432810507,0.41033249,0.386042203,0.360388488,0.334147172,0.308470878,0.284739018,0.264243592,0.247841024,0.235723052,0.227404326,0.221925776,0.218181972,0.215237912,0.21251964,0.209828956,0.207211503,0.20476367,0.202475289,0.200173661,0.19758022,0.194439808,0.190652922,0.186341771,0.181810582,0.177410365,0.173369904,0.169683369,0.166129519,0.162434946,0.158507391,0.154599143,0.151261464,0.1490412,0.148026476,0.147496863,0.145977289,0.14186542,0.134514119,0.125326078,0.118244899,0.119159834,0.134189177,0.167386694,0.218819491,0.283931865,0.354595138,0.421483754,0.476809628,0.516314064,0.539815186,0.550300662,0.55216626,0.549445091,0.544696439,0.538792463,0.531409686,0.521794868,0.509388033,0.494078261,0.476108901,0.455818849,0.433444105,0.409117897,0.383061481,0.355834248,0.32847319,0.302410554,0.27917581,0.259998612,0.245478216,0.235453154,0.229114191,0.225300465,0.222850655,0.220875121,0.218867117,0.216650614,0.21422926,0.211627665,0.208798379,0.205622299,0.201981216,0.197848777,0.193340792,0.188688414,0.184139705,0.179838772,0.175754534,0.171716039,0.167557532,0.16330541,0.159287913,0.156055028,0.154078122,0.15333555,0.153018026,0.151620717,0.147566447,0.140240353,0.131020679,0.123733755,0.124084135,0.138024368,0.169568255,0.218935289,0.281895176,0.35071092,0.41636714,0.471185648,0.510783215,0.534682042,0.5455282,0.547458128,0.544403326,0.538978219,0.532203045,0.523908032,0.513432301,0.500228573,0.484151519,0.465424053,0.444432707,0.421544444,0.397070338,0.371381726,0.345082235,0.319105254,0.294649813,0.272956376,0.255007313,0.241274153,0.231612376,0.225340312,0.221463902,0.218956326,0.216990779,0.215056051,0.212940039,0.210619465,0.208123265,0.205434286,0.202465238,0.199105039,0.195297475,0.191099471,0.186678292,0.182241679,0.177936562,0.17377828,0.169664904,0.165487618,0.161285094,0.157340361,0.154118174,0.152008588,0.150963816,0.150235348,0.148457311,0.144217768,0.137017206,0.128231809,0.121541469,0.122390265,0.136438071,0.167479957,0.215681589,0.276961894,0.343900966,0.407867354,0.461502204,0.500566119,0.524504075,0.535702279,0.537960763,0.534928039,0.529090632,0.521530511,0.512286004,0.500950102,0.487160143,0.470805411,0.451982137,0.430853527,0.407580374,0.382397086,0.355786033,0.328623454,0.302174808,0.277897092,0.257109839,0.240666294,0.228757366,0.220919562,0.216229937,0.213599536,0.212050194,0.210883217,0.209705715,0.208342948,0.206705913,0.204688355,0.20213937,0.198913565,0.19496069,0.19039684,0.185506898,0.180660712,0.176171379,0.172162743,0.168522883,0.164987931,0.161333092,0.157574416,0.15404802,0.151267967,0.149574575,0.148731892,0.147737892,0.145090463,0.139569245,0.131299869,0.122605087,0.118087722,0.123633032,0.14450483,0.183217863,0.238111015,0.303339291,0.370402812,0.430631272,0.477613596,0.508630376,0.524655974,0.529154972,0.526361044,0.519799889,0.511538512,0.502216453,0.491575141,0.479084139,0.464362728,0.447304631,0.428001575,0.406640241,0.383502052,0.3590775,0.334196975,0.310046842,0.28799808,0.26928601,0.254673197,0.244246859,0.23743978,0.233258323,0.230611385,0.228602408,0.226681425,0.224628844,0.222419106,0.220054208,0.217452324,0.214435387,0.210805664,0.206461011,0.2014834,0.196149648,0.190847796,0.185928211,0.181556442,0.177646696,0.173927386,0.170126405,0.166189565,0.162399414,0.159282111,0.157286079,0.156360302,0.155680761,0.15378875,0.149260067,0.141748257,0.132956098,0.126963507,0.129504848,0.146234926,0.180559225,0.231940113,0.295497816,0.363194749,0.426175788,0.477311105,0.512933342,0.533187246,0.54106612,0.540742168,0.535969164,0.529129913,0.521092812,0.511666657,0.500262129,0.486409116,0.469965343,0.451056359,0.42991331,0.406780006,0.381967544,0.356010966,0.329800366,0.304564447,0.281665785,0.262274985,0.2470604,0.236025919,0.228561361,0.223675322,0.220307768,0.217600103,0.215032916,0.212409286,0.209726302,0.207015833,0.20423168,0.201225247,0.197806095,0.193845732,0.189367041,0.184569358,0.179767203,0.17526237,0.171206554,0.167528509,0.163981448,0.160307783,0.156447973,0.152667892,0.149486641,0.147373596,0.146325006,0.145562794,0.143630668,0.139031525,0.131274704,0.121901175,0.114900511,0.116077376,0.131356095,0.164564693,0.215610989,0.279918147,0.349483603,0.415197598,0.469482319,0.508198506,0.531156129,0.541231794,0.542675311,0.53941162,0.533973727,0.527286973,0.519121471,0.508805243,0.495809758,0.480000581,0.461570644,0.44082975,0.418048352,0.393472269,0.367488699,0.340819342,0.314593922,0.290223718,0.26909813,0.25222638,0.239968211,0.231963521,0.227280076,0.22471281,0.223115361,0.221646107,0.21985942,0.217645702,0.215078101,0.212252184,0.209186306,0.20581384,0.202049059,0.197878445,0.193417108,0.18889112,0.184547235,0.180533489,0.176824438,0.173248326,0.16962401,0.165942323,0.162475975,0.159707286,0.158042519,0.15741968,0.157038085,0.155465475,0.151257246,0.14395622,0.135062302,0.128419862,0.129604131,0.144303424,0.176210573,0.225287696,0.287225391,0.354437761,0.418249183,0.471389014,0.509802191,0.533153033,0.544020641,0.546327373,0.543753743,0.538725297,0.532184491,0.523981606,0.513516696,0.500283056,0.484123964,0.465209868,0.443879881,0.420512203,0.395513721,0.369418496,0.342997472,0.317276144,0.29340923,0.27245048,0.255105843,0.241577766,0.231554434,0.224344362,0.219094624,0.215008651,0.211497735,0.208225931,0.205061374,0.201972282,0.198923168,0.195819804,0.192517949,0.188894077,0.184932628,0.18077663,0.176700116,0.172996987,0.169829246,0.167118539,0.164550008,0.161722423,0.158384658,0.154641733,0.1509852,0.148069256,0.146286321,0.145337371,0.144096089,0.140985729,0.134880065,0.126218524,0.117790108,0.114628853,0.122788419,0.147273744,0.189922973,0.248180927,0.315409643,0.382715974,0.44156646,0.486132725,0.514474013,0.528247978,0.531308787,0.527937322,0.521451561,0.513606596,0.504761009,0.494480089,0.482174803,0.467486565,0.450359048,0.430914474,0.40931413,0.385752902,0.360587911,0.334511984,0.308635135,0.284364107,0.263111293,0.245930142,0.233235196,0.224726642,0.219542669,0.21656533,0.214753493,0.213372566,0.212055309,0.210702954,0.209314856,0.207838507,0.206114388,0.20393509,0.201154042,0.197797428,0.194085637,0.190349897,0.186880048,0.183772086,0.180871603,0.17785653,0.174444767,0.170621162,0.166737301,0.163382826,0.161022603,0.159559086,0.158100036,0.155162156,0.149422479,0.140797273,0.131355777,0.125512263,0.129126175,0.147644804,0.183947373,0.236804367,0.300732578,0.367404429,0.42809332,0.476147879,0.508532883,0.525945291,0.531679703,0.52991799,0.524200696,0.516605778,0.507748618,0.497314485,0.48474448,0.46971544,0.452281612,0.432748443,0.411459604,0.388680021,0.364656524,0.339798882,0.314854002,0.290933236,0.26933961,0.251239764,0.237337199,0.227658298,0.221571443,0.217995163,0.215744236,0.213844848,0.211727007,0.209241866,0.206523662,0.203789257,0.201164456,0.198610844,0.195946474,0.192964169,0.189530895,0.185676521,0.18155978,0.17738801,0.173286248,0.169218751,0.165024202,0.160569805,0.155936884,0.151539689,0.14803224,0.145977884,0.145415546,0.145538278,0.144786891,0.141488271,0.134935985,0.12644042,0.119798251,0.120703143,0.135065122,0.166805314,0.216016452,0.278359668,0.346098896,0.410363148,0.463760178,0.502230878,0.525544054,0.536419696,0.538868475,0.536577566,0.531887423,0.525616601,0.517524538,0.506994145,0.493574474,0.477219468,0.458211139,0.436952806,0.413807006,0.38908948,0.363212483,0.33684765,0.311007064,0.286948515,0.265907971,0.248809973,0.236036799,0.227339592,0.221949754,0.21882167,0.21692068,0.215430595,0.21385486,0.212014534,0.209886875,0.207519757,0.204886898,0.201902442,0.198458859,0.194516751,0.190172999,0.185661727,0.18127491,0.177239729,0.173594883,0.170167675,0.1667048,0.163032769,0.15926877,0.155827386,0.15323202,0.151731674,0.15093878,0.149713172,0.146568215,0.140497257,0.132073249,0.124099014,0.121493636,0.1300335,0.154396758,0.19620039,0.252894546,0.318133728,0.383557701,0.441210746,0.485699837,0.515211061,0.531163855,0.536939308,0.536232005,0.531861402,0.525274848,0.516752394,0.505981208,0.492590538,0.476496143,0.457923701,0.437238019,0.414801178,0.390919721,0.365971098,0.340558865,0.315579001,0.292167931,0.2714762,0.254384066,0.241265722,0.231936677,0.225724108,0.221716965,0.21898963,0.216837017,0.214808605,0.212722944,0.210536824,0.208232148,0.205774776,0.203036614,0.199927176,0.196412849,0.192567662,0.1886041,0.184767397,0.181254805,0.178059801,0.175011748,0.171819107,0.168268926,0.164411801,0.160604729,0.157383634,0.155120718,0.153649868,0.152042275,0.148912188,0.143107741,0.134753315,0.126006006,0.121183106,0.12583738,0.14493277,0.180916447,0.23234312,0.293893818,0.357726579,0.415804168,0.462095367,0.493910168,0.511867355,0.51886558,0.518480168,0.51376232,0.506469708,0.497248628
0.15213455,0.154438644,0.156252104,0.156953692,0.155703347,0.1516047,0.144173323,0.134059186,0.123735539,0.117674652,0.121594808,0.14077031,0.177966488,0.23192472,0.297191558,0.365490992,0.428114213,0.478349462,0.513012131,0.53259829,0.540210555,0.53988783,0.535104043,0.527965973,0.519206323,0.508691911,0.496031883,0.480982467,0.463563626,0.443976199,0.42247109,0.399294937,0.374761404,0.34940523,0.324103886,0.300046421,0.278510294,0.260527944,0.246598946,0.236578693,0.229778089,0.225213364,0.221900198,0.219090931,0.216385405,0.213693893,0.211089138,0.208632043,0.206260454,0.203785176,0.200973696,0.197662844,0.193841463,0.18966616,0.185398797,0.181283992,0.177421039,0.173708284,0.169917101,0.165879479,0.161686389,0.157754392,0.154662999,0.152784889,0.15187455,0.150878202,0.148208579,0.142552291,0.133980466,0.124851231,0.119914801,0.125282504,0.146442657,0.186048462,0.242449949,0.309707537,0.379187294,0.44211563,0.492044294,0.526265723,0.545756913,0.553911124,0.554784835,0.551642166,0.546268339,0.539075952,0.529690082,0.517598315,0.50256467,0.484715774,0.464393221,0.441954984,0.417686113,0.391876194,0.365000781,0.337873032,0.31164669,0.287636487,0.267020972,0.250549668,0.238369304,0.230028326,0.224647392,0.2211847,0.218697445,0.216512747,0.214267636,0.211836218,0.209204198,0.206358824,0.20323953,0.199758305,0.195865392,0.191614619,0.187180341,0.182800506,0.178663994,0.174804177,0.171074102,0.167243495,0.16318515,0.159046483,0.155276499,0.152428087,0.150775175,0.149927766,0.148715654,0.14556423,0.13937512,0.130618412,0.122099221,0.118853133,0.126931032,0.151357533,0.194034329,0.252523712,0.320344926,0.388758914,0.449335688,0.496256108,0.527473304,0.544433608,0.550706703,0.550268212,0.54616503,0.539959376,0.531920117,0.521629954,0.508607403,0.492670597,0.473982578,0.452895092,0.429776735,0.404964065,0.378859267,0.352088831,0.325594729,0.300569178,0.278234396,0.259553858,0.244996312,0.234446856,0.227291931,0.222633154,0.21954022,0.217250724,0.215260379,0.21330042,0.211244244,0.209004264,0.206469939,0.203509256,0.200023061,0.196015818,0.191635781,0.187148057,0.18283639,0.178872754,0.17522549,0.171673113,0.167943496,0.16392355,0.159820687,0.156147083,0.153466105,0.151974208,0.151133614,0.149634843,0.145881898,0.138951192,0.129669956,0.121255708,0.1190122,0.128934061,0.155603856,0.200205347,0.25955734,0.326693305,0.392830327,0.449935998,0.492852931,0.520200988,0.5338827,0.537628656,0.535334467,0.529858445,0.522590377,0.513699716,0.50272301,0.48912601,0.472620987,0.453217175,0.431124762,0.406667682,0.380297702,0.352696659,0.324871785,0.298135863,0.27392224,0.253477287,0.237546569,0.226186688,0.218786304,0.214292544,0.21155358,0.209642557,0.208041364,0.206628576,0.205503368,0.204745462,0.204229409,0.203574645,0.202242639,0.199724308,0.195725585,0.190269714,0.183682761,0.176488078,0.169275329,0.162609899,0.157009969,0.152963131,0.150913983,0.151154972,0.15360415,0.157541551,0.161463831,0.163251449,0.160774378,0.152877266,0.140436476,0.126992374,0.11847398,0.121823542,0.142820664,0.183872464,0.242703524,0.312594222,0.38417127,0.448067096,0.497399583,0.529168076,0.544212396,0.546020544,0.539070623,0.527404757,0.513839471,0.499836778,0.485797424,0.471477682,0.456330442,0.439721719,0.421077992,0.400037007,0.376621732,0.351385276,0.325437293,0.300288719,0.277530707,0.258450221,0.243726134,0.233319067,0.226582426,0.222529064,0.22013493,0.21856757,0.217280052,0.215977774,0.214514843,0.212790538,0.210695659,0.208119891,0.204996891,0.201349085,0.197300814,0.193047543,0.188789935,0.184658733,0.180666506,0.176720067,0.172706118,0.168622129,0.164679831,0.16128924,0.158865757,0.157497391,0.156630021,0.155006857,0.151059541,0.14376185,0.133676522,0.123691032,0.118915083,0.125490151,0.148565356,0.190185108,0.24802296,0.31562061,0.384144107,0.444974752,0.492081528,0.523268852,0.539957802,0.545820653,0.545010188,0.540741725,0.53466554,0.527030917,0.517316922,0.504908143,0.489508945,0.471209581,0.450316944,0.427155715,0.402010662,0.375256173,0.34758054,0.320136194,0.294473085,0.272224469,0.2546501,0.242228521,0.234483057,0.23012973,0.227496539,0.225047606,0.221805489,0.217517744,0.21253243,0.207473575,0.202881884,0.198978179,0.195629636,0.192495569,0.189249955,0.185754711,0.182096044,0.178475302,0.175027638,0.171685999,0.168188628,0.164249203,0.159805815,0.155192918,0.151087138,0.148178968,0.146685583,0.145968774,0.144563034,0.140788779,0.133840415,0.124915152,0.117767601,0.118191815,0.132364674,0.164561844,0.21517916,0.279988993,0.35107358,0.419124432,0.476170881,0.517635808,0.542986236,0.554926611,0.557701391,0.555337324,0.550499895,0.544220974,0.53632804,0.526165742,0.513205956,0.497323248,0.478740152,0.457807073,0.434819301,0.409999294,0.383644404,0.356332069,0.32903916,0.303079444,0.279859124,0.26054132,0.245752532,0.235443656,0.228951165,0.225223742,0.22312027,0.221669398,0.220211397,0.218402293,0.216118688,0.213333654,0.210029661,0.206181778,0.201801556,0.196998252,0.192003569,0.187124835,0.182633683,0.178643195,0.175049062,0.171589293,0.1680141,0.164281408,0.160648791,0.157558353,0.155315668,0.153709712,0.151829682,0.148320569,0.142141498,0.133598948,0.125163797,0.121521449,0.128549959,0.151411629,0.192449904,0.24981475,0.317517296,0.387004964,0.449653195,0.499159482,0.532914484,0.551945274,0.559678508,0.560218531,0.556893701,0.551539495,0.544566238,0.535527449,0.523787534,0.508977512,0.491126162,0.47054327,0.447629535,0.422772058,0.396388019,0.369066215,0.341689083,0.315427279,0.291571199,0.271253241,0.255172087,0.243430295,0.23554539,0.230621586,0.22760853,0.225549416,0.223739594,0.221765065,0.219443058,0.216719984,0.213584638,0.210031664,0.206076848,0.201797021,0.197353949,0.19296906,0.188843375,0.185054609,0.181491808,0.177885729,0.173950931,0.169586119,0.165018494,0.160768801,0.157383304,0.155014281,0.153071807,0.150227419,0.144952479,0.136519292,0.126081021,0.117250398,0.115676218,0.127506998,0.157186057,0.205457305,0.268504465,0.338714674,0.406837422,0.464672776,0.507208466,0.533435268,0.5457129,0.548180099,0.545002562,0.539143724,0.531960244,0.523507427,0.513187718,0.500356786,0.484657641,0.466062579,0.444754333,0.421016264,0.395236054,0.368014576,0.340281369,0.313299714,0.288502016,0.26719169,0.250224841,0.23780289,0.229460404,0.224248318,0.221033027,0.218792385,0.21680443,0.214683435,0.212289898,0.209591406,0.206557707,0.20313751,0.199309578,0.195156084,0.190893718,0.1868223,0.183199829,0.180103343,0.177359235,0.174605572,0.171483349,0.167870885,0.164021106,0.160478222,0.157751574,0.155877365,0.154127551,0.151140442,0.145596291,0.137273633,0.128025566,0.122089054,0.125317146,0.143387356,0.179589,0.233127193,0.298771459,0.368124005,0.432049639,0.483282312,0.518180145,0.537045924,0.543102049,0.540751216,0.533924255,0.525100189,0.51516187,0.503866193,0.49052771,0.474565173,0.455752012,0.43421281,0.410318019,0.384618864,0.357870507,0.331087057,0.305524466,0.28252165,0.263220334,0.248269505,0.237647972,0.230691857,0.226321738,0.223376888,0.220923726,0.218427405,0.215743248,0.212964666,0.210219467,0.20751518,0.20469668,0.20151881,0.197781436,0.193449333,0.188690436,0.18380798,0.179096693,0.17469828,0.170542879,0.166427091,0.162203353,0.157974218,0.154148083,0.151258485,0.14957752,0.148711246,0.147463911,0.144210339,0.137798338,0.128684049,0.119744916,0.11619589,0.124343233,0.149456471,0.193559335,0.254127758,0.324375018,0.395112806,0.457453293,0.50524827,0.536337904,0.552282684,0.556935917,0.55463169,0.548757912,0.541137991,0.532197076,0.52157098,0.508740429,0.493408759,0.475563893,0.455348974,0.432930864,0.408499455,0.382407095,0.355345394,0.328418549,0.303024237,0.280559984,0.262069672,0.247979562,0.238030336,0.231421973,0.227098701,0.224052848,0.221536599,0.219123892,0.216637958,0.214012685,0.211172366,0.207987988,0.20431929,0.200104985,0.195439098,0.190577976,0.185857189,0.181546022,0.177710063,0.174165258,0.170573233,0.166654539,0.162415562,0.158241778,0.154747538,0.15239182,0.151030114,0.149688722,0.146828784,0.141173611,0.132852211,0.124323008,0.120470948,0.127533517,0.151046839,0.19356125,0.253136099,0.323385905,0.39518584,0.459379193,0.509377592,0.542635452,0.560552148,0.567074122,0.566769327,0.563214994,0.558227585,0.551989256,0.543744775,0.532604163,0.518082105,0.500239159,0.479509279,0.456426371,0.431448493,0.40497208,0.377492127,0.349775374,0.322909675,0.298167682,0.276725774,0.259357284,0.24623148,0.236901845,0.230483517,0.225941142,0.222372444,0.219186122,0.216129564,0.21319103,0.210443953,0.20791173,0.205502435,0.203024407,0.200254354,0.197012413,0.193202683,0.188802471,0.183821495,0.178278382,0.172237131,0.165905143,0.159732291,0.15440813,0.150672895,0.148945019,0.148908524,0.149309031,0.148211626,0.143812518,0.135610006,0.125449161,0.117840082,0.119135462,0.135628576,0.171194803,0.225447713,0.293283243,0.366122729,0.434412429,0.490369498,0.529892094,0.55299267,0.562804066,0.563792747,0.560013479,0.554040611,0.546777963,0.53794014,0.526787771,0.512723867,0.495557456,0.475454092,0.452743367,0.427777248,0.400941391,0.372799019,0.344241287,0.316515249,0.291058725,0.269188618,0.251765078,0.238974369,0.230318948,0.224812899,0.221295763,0.218741523,0.216451041,0.214084936,0.211561877,0.208899558,0.20608599,0.203031784,0.199611227,0.195748503,0.191491857,0.187019841,0.18256731,0.178304859,0.1742381,0.170205532,0.165999763,0.161565561,0.157157942,0.153328051,0.150670657,0.149401162,0.148984079,0.14808639,0.145061,0.138905521,0.130353661,0.122541505,0.120740397,0.13099993,0.158062644,0.203358204,0.263968482,0.333106075,0.401986595,0.462351617,0.508630135,0.538949291,0.554780774,0.559596275,0.557253932,0.550772864,0.541839742,0.530988934,0.518132627,0.503080582,0.485812926,0.466479229,0.445254588,0.42223124,0.39746027,0.371136161,0.343814074,0.316510144,0.290602772,0.267543684,0.248497939,0.234053364,0.224113067,0.217990998,0.214657038,0.213016659,0.212128393,0.211301915,0.21008567,0.20820215,0.205482194,0.201848133,0.197334303,0.192122033,0.18654599,0.181043709,0.17605101,0.171872214,0.168586994,0.166043567,0.163969794,0.162149009,0.160574662,0.159455977,0.159020882,0.159171694,0.15917554,0.157648364,0.153024077,0.14447989,0.133009274,0.122096447,0.117469883,0.125727415,0.152145364,0.19848987,0.261782371,0.334679455,0.407427358,0.470651161,0.517871448,0.546825293,0.55924364,0.559411873,0.552286979,0.541932936,0.530741093,0.51946054,0.507729527,0.494727092,0.479655919,0.461956633,0.44135238,0.41784312,0.391761409,0.36386949,0.335403255,0.307962073,0.283225442,0.262564548,0.246705496,0.235587988,0.228462493,0.224191776,0.221617796,0.21984606,0.218359089,0.216947466,0.215541344,0.214028669,0.21217465,0.209663105,0.206228621,0.201804557,0.196592739,0.191025614,0.185599326,0.180667366,0.176283277,0.172185351,0.16796723,0.163355249,0.158451008,0.153774278,0.150022542,0.147590497,0.146126585,0.144420165,0.140881909,0.13454971,0.126268228,0.11938528,0.119425183,0.132574732,0.163407949,0.212781328,0.276888569,0.347996704,0.416660281,0.474516614,0.516511483,0.541757767,0.552868558,0.554263977,0.550299535,0.543950048,0.536420627,0.52755148,0.516628395,0.503124445,0.487047546,0.468851606,0.449044778,0.427821888,0.404944315,0.38000247,0.352881524,0.324236891,0.295650685,0.269333879,0.247468644,0.231446133,0.221353513,0.215942732,0.213103471,0.210667983,0.207147957,0.202174224,0.196429033,0.191173525,0.187583101,0.186200173,0.186674515,0.187903425,0.188463524,0.18713695,0.18327618,0.176917232,0.168629084,0.159280915,0.149826003,0.141294617,0.134794992,0.131436816,0.132012299,0.136464109,0.143444968,0.150305626,0.153768485,0.151248532,0.142375247,0.130003648,0.120076948,0.120162298,0.137012257,0.174089537,0.230081414,0.299064031,0.372242874,0.440573055,0.497124704,0.538411384,0.564353059,0.577253364,0.580357118,0.576738347,0.568728126,0.557855033,0.545081952,0.530972165,0.515816893,0.499607466,0.482064607,0.462804281,0.441585159,0.418525982,0.394186168,0.369472245,0.345366899,0.322706462,0.302030272,0.283669614,0.267890588,0.255016793,0.245388632,0.239205614,0.236310597,0.236036314,0.237267866,0.238542421,0.238384206,0.235467963,0.228922387,0.218493447,0.204738934,0.189080884,0.173656996,0.160932076,0.153010656,0.150958667,0.154399958,0.161530905
0.178841168,0.180927215,0.181702514,0.180049548,0.175880551,0.170114233,0.164259055,0.159774931,0.157452564,0.15701915,0.15711296,0.155713781,0.15103179,0.142672427,0.132640969,0.125607913,0.128021961,0.146146224,0.183674161,0.239915975,0.309411915,0.383258101,0.451687239,0.506889538,0.544965759,0.566327545,0.574583243,0.574589819,0.570591235,0.565132179,0.558938521,0.551501977,0.54190051,0.529441677,0.513922117,0.495526913,0.47455881,0.45123487,0.425702273,0.398255226,0.369588112,0.340891636,0.313698244,0.289530635,0.269506449,0.254061555,0.24289371,0.235137297,0.229690189,0.225554357,0.222053224,0.218859382,0.215868878,0.213028107,0.210217071,0.207235118,0.203871697,0.200008932,0.195695889,0.191146754,0.186647477,0.182407536,0.178441494,0.174568195,0.170554197,0.166331583,0.162150269,0.158531553,0.155981389,0.154565202,0.153578781,0.151594929,0.147057643,0.1393304,0.129783069,0.122309529,0.122776609,0.13734063,0.170151996,0.221389459,0.286555041,0.357465881,0.424622187,0.479998782,0.519135591,0.541772917,0.550974881,0.55133061,0.547104655,0.541046445,0.534126527,0.526015387,0.515869028,0.502992788,0.487145443,0.468486613,0.447344724,0.424027464,0.398814559,0.372124132,0.344718382,0.317782136,0.29278056,0.271128656,0.253809387,0.241106045,0.232561888,0.227178708,0.223764741,0.221285262,0.219080373,0.216886655,0.214694734,0.212543902,0.210366056,0.207947911,0.205013392,0.201370998,0.197043843,0.192308449,0.187608883,0.183373424,0.179817223,0.176835858,0.174062055,0.171079042,0.167693694,0.164116677,0.160911965,0.158675728,0.157558891,0.156891867,0.155213749,0.15088304,0.143162985,0.133347845,0.125312594,0.124984049,0.138664689,0.170720609,0.221572338,0.286931137,0.358737889,0.42750055,0.485083306,0.526821238,0.552202716,0.564054691,0.566803023,0.564656714,0.560411978,0.555149264,0.548660025,0.540189839,0.529081737,0.515081676,0.498299878,0.478991104,0.457363198,0.433552557,0.407774803,0.38054402,0.352811348,0.325916461,0.301342674,0.280364231,0.263725739,0.251478831,0.243032194,0.237382658,0.233427775,0.230241608,0.227228003,0.22412749,0.22091329,0.217644962,0.21434843,0.210966484,0.207387314,0.203522837,0.19938551,0.195112215,0.190910478,0.18694666,0.183236722,0.179612991,0.175810937,0.171654584,0.167246372,0.163029121,0.159620914,0.157436038,0.156257308,0.155035178,0.152167962,0.146325542,0.137571746,0.128267235,0.123173283,0.128429382,0.14958258,0.189372978,0.246232066,0.31424105,0.384682223,0.448596688,0.499314124,0.533975876,0.553580014,0.561746867,0.562894179,0.560621069,0.556849202,0.55184288,0.544850487,0.534927359,0.521544508,0.504787075,0.48518196,0.463357794,0.439775422,0.414680564,0.388281677,0.361024733,0.333785202,0.30784374,0.284624984,0.265298778,0.250413225,0.239720429,0.232276353,0.226782382,0.222036354,0.217315999,0.212546443,0.208193177,0.204934662,0.203256753,0.20313854,0.203957399,0.204650215,0.204065163,0.201362769,0.196303745,0.189304723,0.181240851,0.173090932,0.165601973,0.159143288,0.153811037,0.14968192,0.146999192,0.146096312,0.147035848,0.149172624,0.150991755,0.150508453,0.146242291,0.138416833,0.129783249,0.125496028,0.131825795,0.15404634,0.194309385,0.250444316,0.316275028,0.383375263,0.443533755,0.490921527,0.523180629,0.541223114,0.548098189,0.547562956,0.542910566,0.536321323,0.528726838,0.520039216,0.509578454,0.496549343,0.480430947,0.461169788,0.439144484,0.414976201,0.389330673,0.362839642,0.336169961,0.310153826,0.285841566,0.264383984,0.246763388,0.233497012,0.224466441,0.218965704,0.215948543,0.214357308,0.213382461,0.212545948,0.211599355,0.210329031,0.208409758,0.20541271,0.20096766,0.194968802,0.187675085,0.179622086,0.171392043,0.163392294,0.155795174,0.148687744,0.142333681,0.137357092,0.134680163,0.135174717,0.139151482,0.145922487,0.15367668,0.159808243,0.161677553,0.157623142,0.147921068,0.135332926,0.124925248,0.123014298,0.135391733,0.165338554,0.212170327,0.270997076,0.333962863,0.392596183,0.440365632,0.474404582,0.495745448,0.50809996,0.515864436,0.522288911,0.528530605,0.53378728,0.536185647,0.533842111,0.525593427,0.511199486,0.491143428,0.466321519,0.437868419,0.407170609,0.375923487,0.346018957,0.319161668,0.296340008,0.277468847,0.261516197,0.247174202,0.23376182,0.221806255,0.212858563,0.208549902,0.209415487,0.214229703,0.220316858,0.224692568,0.225369064,0.222081715,0.216092235,0.209294779,0.203209958,0.198408523,0.194560281,0.190921856,0.186888431,0.182299254,0.177404833,0.172617933,0.168265584,0.164505804,0.161419668,0.159135877,0.157797802,0.157297876,0.156931977,0.155313192,0.15085678,0.142846585,0.132652107,0.124365436,0.124224006,0.138722308,0.17204902,0.223992582,0.289387683,0.359495263,0.424766384,0.477767972,0.515026215,0.537156299,0.547510189,0.550200644,0.548463999,0.543953147,0.536989103,0.527355577,0.515071122,0.500716568,0.485210262,0.469246342,0.452794603,0.435020251,0.414735862,0.3911754,0.364666879,0.336810361,0.310031746,0.286723926,0.268401678,0.255266945,0.246343147,0.240044605,0.234864004,0.229864038,0.224811784,0.219988296,0.215837619,0.212643103,0.210355548,0.208603417,0.206840321,0.204549934,0.201428438,0.197485109,0.193031629,0.188563839,0.18457156,0.181338135,0.178805189,0.176570813,0.17405129,0.170767782,0.166641064,0.162132191,0.158098697,0.155358057,0.154123934,0.153620798,0.152192864,0.148050419,0.140475952,0.130981071,0.123756024,0.124934635,0.140700377,0.174873797,0.227014783,0.291976252,0.361240906,0.425544612,0.47768097,0.514326229,0.536241416,0.546995777,0.550983113,0.551673223,0.550741684,0.548187603,0.543090636,0.534478955,0.521893179,0.505503044,0.485889912,0.463733391,0.439613323,0.414013098,0.387469896,0.360734024,0.334806514,0.31080678,0.289727017,0.272195192,0.258359386,0.247934794,0.240368672,0.235028944,0.231332081,0.22878023,0.226936908,0.225397412,0.223792945,0.221826063,0.21930462,0.21614519,0.212348036,0.207973521,0.203147359,0.198089213,0.193123149,0.188622164,0.184874362,0.18191842,0.179443743,0.176850992,0.173505394,0.169105619,0.163985204,0.159130126,0.155786203,0.154738088,0.155585842,0.156487978,0.154752911,0.148306527,0.137550598,0.126698649,0.123612606,0.137628139,0.175759375,0.238644801,0.318122526,0.398001354,0.458391078,0.482312939,0.462012983,0.402211397,0.318726374,0.233023032,0.165141216,0.128053822,0.125487075,0.153306189,0.202945328,0.26488824,0.330874608,0.394628388,0.451702734,0.499160969,0.535445416,0.560361403,0.574939895,0.581055361,0.580877911,0.576349547,0.568848298,0.559102089,0.547311617,0.533376383,0.51710751,0.498356057,0.477062913,0.453293621,0.427311532,0.399678628,0.371314305,0.343443045,0.317417586,0.294467231,0.275450746,0.260687803,0.249919178,0.242411354,0.237174527,0.233218454,0.229755791,0.226293415,0.222609894,0.218663492,0.214487041,0.210112503,0.205546688,0.20079669,0.195918025,0.191039825,0.186330344,0.181910165,0.177769683,0.173763764,0.169715138,0.16558483,0.161604718,0.15825645,0.156039241,0.155085373,0.154814914,0.153895303,0.150708036,0.144296516,0.13545645,0.127405267,0.125503341,0.135855773,0.1631691,0.208698263,0.269218909,0.337587007,0.404752219,0.462422921,0.505298915,0.532036412,0.544739455,0.547424655,0.544255339,0.538263493,0.530897432,0.522299843,0.511947798,0.499257312,0.483908975,0.465872163,0.445269549,0.422268473,0.397113027,0.370279962,0.342636895,0.315463274,0.290266561,0.268440975,0.250905454,0.237873282,0.228849171,0.22284765,0.21873327,0.215540459,0.212655068,0.209816104,0.206982934,0.204165155,0.20130885,0.198285941,0.194970713,0.19134206,0.1875375,0.183812337,0.180411451,0.177421256,0.174697586,0.171937635,0.168882284,0.165541385,0.162284504,0.159682274,0.158114998,0.157332441,0.156259521,0.153307508,0.147240402,0.138318807,0.129171743,0.124802104,0.131425259,0.154383013,0.195913109,0.253769571,0.321409542,0.389783696,0.45002821,0.495955671,0.525381918,0.539913803,0.543522626,0.540677133,0.534839223,0.527788882,0.519785332,0.510225159,0.498357846,0.483739444,0.466332323,0.446357928,0.424103252,0.399844973,0.373942224,0.347019029,0.320093055,0.294527165,0.271780327,0.253041478,0.238902624,0.229208047,0.223144541,0.219528333,0.217167956,0.215160426,0.213021413,0.210633999,0.208075216,0.205428287,0.202668346,0.199662337,0.196262723,0.192423379,0.188265195,0.184039872,0.180005842,0.176281298,0.17277205,0.169239207,0.165493707,0.161611193,0.15801464,0.1553088,0.153884422,0.15347382,0.15295205,0.150650275,0.145232531,0.136862794,0.1281078,0.123972655,0.130755559,0.153953576,0.195999615,0.254829935,0.324022878,0.394558162,0.457507105,0.506549914,0.539342169,0.557341162,0.56440205,0.56491587,0.562292232,0.558265411,0.553041299,0.545950275,0.536177288,0.523236852,0.507090995,0.488000365,0.466304337,0.442296639,0.416269283,0.388679012,0.360314582,0.332338334,0.306152798,0.283116132,0.26422322,0.249870108,0.239791676,0.233191613,0.229003754,0.226182169,0.223915059,0.221708428,0.219339254,0.216736694,0.21386501,0.210662877,0.207056405,0.203018934,0.198623351,0.194040717,0.189471535,0.185040288,0.180733347,0.176425602,0.172025362,0.167636521,0.163637952,0.160557635,0.158742148,0.157961307,0.157189303,0.154827996,0.149448867,0.140873997,0.131122866,0.124657119,0.127529557,0.145534001,0.181974104,0.236002123,0.302333516,0.372592121,0.437777009,0.490848651,0.528394927,0.550844261,0.561346358,0.564021469,0.562368983,0.558418685,0.55272739,0.544941777,0.534504957,0.521134176,0.504932649,0.486213474,0.465246261,0.442121026,0.416836497,0.3895506,0.360849588,0.331872688,0.304185792,0.27945866,0.2590319,0.243580069,0.232965713,0.226345208,0.222473914,0.220080597,0.218170854,0.216176681,0.213903828,0.211380951,0.208666193,0.205738949,0.202497206,0.198843801,0.194790572,0.190500886,0.186232147,0.182204553,0.178474164,0.174893531,0.171218937,0.167309532,0.163315222,0.159693936,0.156992783,0.15543196,0.154525762,0.153015076,0.149339657,0.142602349,0.133663406,0.125799414,0.124395484,0.135511535,0.16373334,0.210159117,0.271449251,0.340458492,0.408281801,0.466863893,0.511113856,0.53976597,0.554801359,0.559954217,0.559042454,0.55481486,0.548598171,0.540585006,0.530423419,0.517724828,0.50229024,0.484094167,0.463201133,0.439726174,0.413939487,0.386385031,0.357961736,0.329831483,0.30319688,0.279063766,0.258101785,0.240638778,0.226765308,0.216445415,0.209527251,0.205702021,0.204402121,0.204787428,0.205866215,0.206664543,0.206469069,0.204957819,0.202223439,0.19865761,0.19478066,0.191029151,0.187671984,0.184707601,0.181922767,0.178993922,0.175632729,0.171770563,0.16766539,0.163867977,0.160995556,0.159357302,0.158579395,0.157490495,0.154452357,0.148206828,0.138977889,0.129327518,0.124194875,0.129814296,0.151694868,0.192407068,0.250082529,0.318470027,0.388573599,0.451296748,0.500028747,0.532125396,0.548818075,0.553932629,0.551964741,0.546542108,0.539618224,0.531601936,0.521979224,0.510011942,0.49526182,0.477677003,0.457452141,0.434853293,0.41017329,0.383799822,0.356425043,0.329161951,0.303433206,0.280721009,0.262193241,0.248344074,0.238937751,0.233089939,0.229572112,0.22717917,0.224987558,0.222496011,0.219568487,0.216310758,0.212853778,0.209294515,0.205618191,0.201807401,0.197864334,0.193914184,0.190152465,0.186752248,0.183737637,0.18095417,0.178105767,0.174918814,0.171370577,0.167758969,0.164589026,0.162233897,0.16055266,0.158602049,0.154932085,0.148306662,0.138859184,0.129004858,0.123564562,0.128768893,0.150255829,0.190768545,0.248563726,0.317450254,0.388385769,0.452151687,0.502025025,0.535242834,0.55301279,0.559093766,0.557991059,0.553356239,0.547205887,0.540032605,0.531343687,0.520450627,0.506907013,0.490627317,0.471756995,0.450501838,0.427018575,0.401545776,0.374541301,0.346900239,0.31993426,0.295190323,0.274066798,0.25743891,0.245448839,0.237485497,0.232448645,0.229114596,0.226468115,0.223908033,0.221253007,0.21854993,0.215923639,0.213334495,0.210617044,0.207510788,0.203794479,0.199493409,0.194790889,0.190059013,0.1856171,0.181652692,0.178046659,0.174502183,0.170761642,0.16682073,0.163021974,0.159991862,0.158178685,0.15743064,0.156735445,0.15444212,0.149104916,0.140605735,0.131211039,0.125716756,0.130423678,0.15119067,0.191021364,0.248575581,0.317841327,0.389957528,0.455715196,0.508285941,0.544630265,0.56568279,0.575017568,0.576877492,0.574846535,0.570895147,0.565374551,0.557826149,0.547565029,0.534194099
0.138291206,0.194737083,0.253361582,0.313878327,0.373895696,0.429445545,0.476360415,0.511763844,0.534962636,0.547404446,0.55184182,0.55118262,0.547568388,0.542012888,0.534595422,0.524940399,0.512661476,0.497585589,0.479761433,0.459368819,0.436649179,0.411921307,0.385680287,0.358719141,0.332175922,0.307423441,0.285798612,0.268271218,0.255200757,0.246285133,0.240704302,0.237380862,0.235257827,0.2335144,0.231670713,0.229564714,0.227227003,0.224722095,0.222036425,0.219059117,0.215644767,0.211708851,0.207302276,0.202628058,0.197983857,0.193641615,0.189714135,0.186088201,0.18248904,0.178669602,0.17462717,0.170701878,0.167448395,0.165286502,0.164080746,0.162905324,0.160246968,0.154740595,0.146246013,0.136785453,0.130757749,0.134057842,0.152221103,0.188251022,0.241069367,0.305351664,0.372924356,0.435188926,0.48557372,0.521040432,0.542163057,0.551973983,0.554273117,0.552189912,0.547493507,0.540687228,0.53156728,0.519821668,0.50537371,0.488403849,0.469174536,0.447856747,0.424508196,0.399230751,0.372411391,0.344893175,0.317957184,0.293096799,0.2716701,0.254569164,0.242028636,0.233631023,0.228488591,0.225522035,0.223732235,0.222378654,0.22102703,0.219485918,0.217689457,0.215589175,0.213097842,0.2100996,0.206513291,0.202372901,0.197875152,0.193351087,0.189153385,0.18550257,0.182373477,0.179499552,0.176519822,0.173212927,0.169693757,0.166432444,0.164019057,0.162733377,0.162133963,0.160963886,0.157597384,0.151005967,0.141894649,0.133424712,0.130972051,0.140729272,0.16752127,0.212689961,0.273020431,0.341301024,0.408384416,0.465917335,0.508613398,0.535209944,0.547908299,0.550774965,0.547935719,0.54230389,0.53517845,0.526589966,0.515990974,0.502868009,0.487033715,0.468599525,0.447799738,0.424869482,0.400086192,0.373941233,0.347304491,0.321437095,0.29779248,0.277667498,0.261851381,0.250425894,0.24279833,0.237943051,0.234741541,0.23228259,0.230019059,0.227752175,0.225490325,0.223273424,0.221051209,0.218662934,0.215910404,0.212672248,0.208991327,0.205082847,0.201249447,0.19773543,0.194587419,0.191597286,0.188377008,0.184557428,0.180031795,0.175112985,0.170477079,0.166847781,0.164520582,0.16297018,0.160838483,0.156491237,0.149062057,0.139579352,0.131573042,0.130645717,0.142901525,0.172701708,0.220661741,0.282837846,0.351585452,0.417812466,0.473695354,0.514735192,0.540398602,0.55328999,0.557444183,0.556596751,0.553113014,0.547808802,0.540450883,0.530491808,0.51762676,0.501972719,0.483917089,0.463841343,0.441942313,0.41827132,0.392960621,0.366491121,0.33983064,0.314342347,0.291483242,0.272416908,0.25770283,0.247185048,0.240112031,0.235423426,0.23207966,0.229308972,0.226697521,0.224123652,0.221600981,0.219120338,0.216563359,0.213715798,0.210359933,0.206391472,0.201897099,0.197145975,0.192487311,0.188193818,0.184327215,0.180705797,0.177014754,0.173026902,0.168825496,0.164884277,0.161897637,0.160371714,0.160145709,0.160131047,0.158544509,0.153725437,0.145314728,0.135279183,0.128171798,0.130242816,0.147514354,0.1834834,0.237422498,0.304092417,0.375092734,0.441336738,0.495636035,0.534381477,0.557787876,0.568845095,0.571627412,0.56973651,0.565410311,0.559419783,0.551529348,0.541148108,0.527849522,0.511599259,0.492703057,0.471601181,0.448670315,0.424155501,0.398269684,0.371402565,0.344314144,0.318182823,0.294440151,0.274427996,0.259008833,0.248295845,0.241624574,0.237782215,0.235397469,0.233329876,0.230911588,0.227973175,0.224683895,0.221308236,0.217997734,0.214702122,0.211219339,0.207338842,0.202992313,0.198325779,0.193648657,0.189282182,0.185390598,0.18189898,0.17856265,0.175166507,0.171740602,0.168636763,0.166359711,0.165181596,0.164733204,0.163863919,0.161009624,0.155082187,0.146575349,0.138334439,0.135434957,0.143933332,0.168791176,0.211770488,0.270256048,0.337635368,0.405177785,0.464653467,0.510601788,0.541373503,0.558695556,0.566184166,0.567610327,0.565658603,0.561528401,0.555268115,0.546444156,0.534723056,0.520124735,0.502946286,0.483526659,0.462061256,0.438596789,0.413205913,0.386232701,0.358463335,0.331118128,0.30564937,0.283416981,0.265362264,0.251795397,0.242364369,0.236204891,0.232208362,0.229310194,0.226704586,0.223930461,0.220828318,0.21741528,0.213747405,0.20982992,0.205605151,0.201009121,0.196055449,0.190891603,0.185784479,0.181027991,0.176811395,0.173120456,0.169741889,0.166395561,0.162943209,0.159554166,0.156693745,0.154868664,0.154204901,0.154084034,0.153129702,0.149739232,0.14309471,0.134265938,0.126813117,0.126373674,0.139114257,0.169497177,0.218259182,0.281547615,0.351715209,0.419531517,0.476912011,0.519050375,0.545171527,0.557800077,0.56108606,0.5590301,0.554313496,0.548013746,0.540035954,0.529832563,0.516990033,0.50146015,0.483461711,0.463245834,0.440943597,0.416616189,0.390477631,0.363144418,0.335742764,0.309777687,0.286793224,0.267960742,0.25376852,0.243937092,0.237581699,0.233538741,0.23071569,0.228333796,0.225997099,0.223603663,0.221176668,0.218710782,0.21610298,0.213185268,0.209824609,0.206023962,0.201959478,0.197922082,0.194183881,0.190857298,0.187831386,0.184839949,0.181646444,0.17825155,0.174985151,0.172373078,0.170779346,0.169979721,0.168942118,0.166081102,0.160069003,0.150971601,0.141182371,0.135547907,0.140328389,0.161165407,0.200791124,0.257486171,0.32507189,0.394565228,0.456857423,0.505311388,0.537255962,0.553922386,0.559091873,0.557222533,0.551887516,0.54503249,0.537085555,0.527586467,0.515887595,0.50159988,0.48468944,0.465334632,0.443742578,0.420087244,0.394615022,0.367841337,0.340696567,0.314500106,0.290730896,0.270670094,0.255060093,0.243920855,0.236595278,0.231997276,0.228956317,0.2265244,0.224142577,0.221633728,0.219061681,0.21654213,0.214094549,0.211592208,0.208817427,0.205581584,0.20184087,0.197740664,0.193555951,0.18955029,0.185826511,0.182259529,0.178569439,0.174519336,0.170139941,0.165836339,0.162259417,0.159934594,0.158798099,0.157917917,0.155680167,0.150550777,0.142215933,0.132602291,0.126165913,0.129043793,0.147154066,0.18389548,0.238426492,0.305367931,0.376182579,0.441717795,0.494861495,0.532245773,0.554431468,0.564729887,0.567375333,0.565900241,0.562288422,0.557007736,0.549622079,0.53952396,0.526421988,0.510448693,0.491978765,0.471366313,0.44879707,0.424344855,0.398188941,0.370856832,0.343343204,0.317019146,0.293349598,0.273527901,0.258173484,0.247207758,0.239945079,0.235347454,0.2323345,0.230034154,0.227901269,0.225694708,0.223359654,0.220888347,0.218225684,0.215253958,0.211849299,0.207967799,0.203704482,0.199281514,0.194959342,0.190910139,0.187124127,0.183414787,0.179545079,0.175425757,0.171274573,0.167608453,0.165000853,0.163666151,0.16307988,0.161920082,0.158538117,0.151925445,0.142825937,0.134422328,0.132068114,0.141895037,0.168672748,0.2137586,0.274072272,0.34265029,0.410637437,0.469909511,0.515253173,0.545286756,0.561934136,0.568906644,0.569987036,0.567825444,0.563570255,0.557217382,0.548286251,0.536409327,0.521593256,0.504145698,0.484432897,0.462679484,0.438949518,0.413318204,0.386127816,0.358174893,0.330711453,0.30523562,0.283146077,0.265395232,0.252271947,0.243386369,0.237845439,0.234537815,0.232419144,0.230705072,0.228931236,0.226895111,0.224536025,0.22182038,0.218684653,0.215051943,0.210900539,0.206332067,0.201585664,0.196970642,0.192737254,0.188950162,0.1854443,0.181911542,0.178100034,0.174029631,0.170086496,0.166887149,0.164911081,0.164052467,0.163363375,0.161256824,0.156267167,0.148164047,0.13892592,0.132980003,0.136330877,0.154684124,0.191220823,0.244976438,0.310621514,0.379850961,0.443852578,0.495832193,0.532591463,0.554651134,0.565100933,0.567871024,0.566225422,0.562002996,0.555679488,0.546952305,0.535409635,0.520942151,0.503786695,0.484310614,0.462760455,0.439175298,0.413538259,0.386082506,0.357564598,0.329316042,0.302994372,0.280116185,0.261585598,0.247453149,0.237028043,0.22928359,0.223333246,0.218720874,0.21538562,0.213357847,0.212409124,0.211897801,0.210922974,0.20870137,0.204939833,0.199982009,0.194640096,0.18980833,0.186061941,0.18343896,0.181481868,0.179490066,0.176849601,0.17330343,0.169075322,0.164811368,0.161344876,0.159325869,0.158822152,0.159058578,0.158495454,0.155375043,0.148668117,0.139105029,0.129795838,0.125980239,0.133739194,0.157984261,0.200457853,0.258615773,0.325969221,0.393846889,0.45390674,0.500383525,0.531234203,0.547878618,0.553863103,0.553176328,0.548927885,0.542792877,0.535188529,0.525843968,0.514365911,0.500534368,0.484301594,0.4656436,0.444466558,0.42068975,0.394486049,0.366535011,0.338124717,0.310998768,0.2869704,0.267451722,0.253074353,0.243559378,0.237870085,0.234592976,0.232380132,0.230297309,0.227958345,0.225432227,0.222994243,0.22085744,0.219002927,0.217171645,0.215001596,0.212224538,0.208815078,0.205009878,0.20119109,0.197682567,0.194575457,0.191686347,0.188679646,0.185314472,0.181664538,0.178162411,0.175378906,0.173590358,0.172360991,0.170446205,0.166244189,0.158774625,0.148822042,0.139648646,0.136729572,0.146311143,0.173195837,0.218632295,0.27927789,0.34783033,0.415133629,0.472924968,0.51606563,0.543428092,0.557267044,0.56159667,0.560390505,0.556370216,0.550663951,0.543213655,0.533495174,0.521126532,0.506123412,0.488799784,0.46949112,0.448338192,0.425277686,0.400261976,0.37357512,0.346056785,0.31910001,0.294376953,0.273390109,0.257052963,0.245454774,0.23790811,0.233240415,0.230188287,0.227746373,0.225333522,0.222766749,0.220101104,0.217429384,0.214755384,0.211948008,0.208811229,0.205184912,0.201044901,0.196542923,0.191955054,0.18755959,0.183511206,0.17974949,0.176029454,0.172082709,0.16783191,0.163544241,0.159806405,0.157242198,0.156059585,0.155665052,0.154626957,0.151216518,0.144436267,0.135169613,0.126849637,0.125102502,0.13623376,0.164976205,0.212406909,0.274994392,0.34530492,0.414163546,0.473375726,0.517915518,0.546741548,0.56213323,0.568070544,0.568464731,0.565982325,0.561710973,0.555557797,0.546943824,0.535401661,0.520861774,0.50357871,0.483920507,0.462161312,0.43845028,0.41295231,0.386055762,0.358545876,0.331597457,0.306599113,0.284855418,0.267260523,0.254112258,0.245066734,0.239298854,0.235746677,0.233399558,0.231484375,0.229546114,0.227393555,0.224997567,0.222349239,0.219400528,0.216059226,0.212251762,0.207993606,0.203452753,0.198907614,0.194661534,0.190907332,0.187607794,0.184506597,0.181279348,0.177734935,0.174024638,0.170673596,0.168312321,0.167277242,0.167149183,0.166631529,0.163993497,0.158014428,0.149177196,0.140438591,0.137092075,0.145431049,0.170588351,0.214364313,0.274047438,0.342822766,0.411709881,0.472279315,0.518947737,0.5500549,0.567414086,0.574801559,0.576167658,0.574328792,0.570533817,0.564796962,0.556556643,0.545390458,0.531230879,0.51435277,0.495136702,0.473825431,0.450457634,0.425097723,0.398035248,0.370023287,0.342333772,0.31650764,0.294022428,0.27592435,0.26256159,0.253541631,0.247920984,0.244519379,0.242233433,0.240247881,0.238122511,0.23572377,0.233061436,0.230138888,0.226889499,0.223143378,0.218753662,0.213668485,0.208032203,0.202143719,0.196396852,0.191132519,0.186461507,0.182250907,0.178193807,0.173999323,0.169633678,0.165429015,0.161956666,0.159687702,0.158535204,0.157589845,0.155282061,0.150123155,0.141827464,0.13240208,0.126308533,0.129695234,0.148440063,0.185833552,0.240934142,0.308213572,0.379077294,0.444331103,0.49696336,0.533692078,0.555209507,0.564861602,0.566936696,0.564946363,0.560857098,0.555141272,0.547349542,0.536888988,0.523445499,0.507129171,0.488270087,0.467139194,0.443910041,0.418701318,0.391816132,0.363911985,0.336189552,0.310064068,0.286991685,0.268006298,0.253562919,0.243366132,0.236638741,0.232314808,0.229331458,0.226939869,0.22467082,0.222288667,0.21978429,0.217132963,0.214257988,0.211046569,0.207376,0.20330174,0.198938126,0.194646222,0.19071819,0.187385901,0.184579702,0.181863934,0.178796699,0.175013511,0.170548703,0.16597749,0.162105368,0.159512019,0.158158636,0.156963723,0.154326287,0.149041878,0.141592487,0.134780071,0.133692564,0.144380446,0.171548039,0.216550336,0.276284723,0.343703512,0.409884813,0.46670557,0.509014358,0.535694193,0.548810452,0.55229569,0.55001482,0.544746194,0.537694032,0.528890192,0.517968256,0.504667819,0.488988407,0.471100908,0.451234409,0.429471013,0.405719973,0.380173741,0.353487218,0.326754138,0.301498622,0.279411922,0.261718362,0.248734296,0.24022157,0.235175379,0.232224171,0.230311348,0.228447034,0.226321859,0.223913952,0.221369977,0.218882162,0.216490012,0.213957023
0.393804595,0.386551544,0.375345979,0.358048318,0.334936631,0.308496959,0.282325367,0.259733658,0.24271305,0.23161285,0.22547053,0.222666163,0.221566963,0.220965822,0.220249138,0.219309865,0.218290516,0.217302839,0.216269612,0.214942343,0.213033054,0.210354234,0.206903092,0.202880908,0.198647073,0.1945979,0.190992463,0.187814341,0.184779795,0.181526357,0.177887921,0.174085357,0.170691429,0.168338497,0.167269749,0.166950013,0.166011529,0.16274664,0.156123704,0.146958432,0.138619544,0.136700717,0.147506117,0.175794753,0.222689299,0.284706112,0.354437702,0.422697506,0.481268474,0.52512831,0.553305307,0.568197538,0.573886662,0.574324893,0.572138478,0.568336192,0.562743021,0.55472909,0.543819036,0.529952661,0.513394645,0.494461877,0.473296564,0.44984906,0.424087468,0.39630785,0.367360905,0.338659827,0.311944293,0.288881233,0.27064424,0.257621327,0.249357371,0.244750444,0.242419011,0.24108984,0.239864033,0.238293069,0.2362877,0.233939658,0.23134549,0.228499961,0.225290852,0.221583376,0.217338984,0.212691867,0.207927586,0.20336566,0.199207169,0.19543348,0.191821543,0.188086903,0.184097917,0.180046605,0.176444815,0.173872356,0.172539728,0.171886643,0.170517767,0.16669231,0.159328897,0.149162517,0.139467723,0.135801894,0.144578732,0.170840264,0.216088017,0.277163635,0.3467942,0.415679652,0.475278407,0.520139381,0.548896622,0.563715084,0.568669545,0.56790361,0.564328803,0.559214571,0.552551486,0.543774056,0.53239979,0.518322053,0.501745792,0.482940981,0.462038166,0.43901419,0.413878619,0.386949546,0.359055749,0.331536581,0.306008567,0.283979243,0.266460485,0.253732533,0.245340292,0.240303412,0.237440067,0.235675264,0.234232328,0.232669984,0.230795155,0.22852552,0.225781407,0.222456661,0.218469345,0.213848991,0.208797124,0.203670056,0.19887197,0.194695912,0.19118825,0.188117505,0.18508971,0.181778062,0.178156069,0.174586494,0.171660451,0.16980476,0.168834584,0.167737358,0.164946626,0.15916611,0.150493033,0.141314887,0.136394412,0.141817737,0.162997973,0.202462406,0.258399244,0.324707298,0.392646085,0.453444555,0.500790806,0.532225015,0.549020372,0.554838405,0.55391754,0.549597591,0.54365293,0.536439761,0.52751404,0.516283355,0.502393943,0.485791429,0.466586809,0.444924747,0.420989126,0.39515197,0.368157592,0.341195593,0.315769749,0.293380379,0.275141419,0.261493419,0.252131211,0.24616705,0.242449386,0.239901921,0.237757162,0.235620431,0.233379889,0.231038511,0.228561844,0.22581,0.222571919,0.218670168,0.214075315,0.20896796,0.203710673,0.19873119,0.194359319,0.190688082,0.187531201,0.184516739,0.181295244,0.177771369,0.174225288,0.171210236,0.169210621,0.168194952,0.167326647,0.165111386,0.160104224,0.152003867,0.14265843,0.136381643,0.139163878,0.156837969,0.19282052,0.246389356,0.312341988,0.382307975,0.447230513,0.499991892,0.537127118,0.559052037,0.568942919,0.570958821,0.568641946,0.564065829,0.557838156,0.549670503,0.539069644,0.525794442,0.509949251,0.49180735,0.47157558,0.449294684,0.424953968,0.398755451,0.371366607,0.343997659,0.318226228,0.295620088,0.277310511,0.263693645,0.254377425,0.248381045,0.244489079,0.241610636,0.239012856,0.236369899,0.233653241,0.230946958,0.228282948,0.225561279,0.222572131,0.219091475,0.21499688,0.210346694,0.205382631,0.200446968,0.195842692,0.191696208,0.187893697,0.184142066,0.1801515,0.175864239,0.171597987,0.167975167,0.165596878,0.164573499,0.164170357,0.162867786,0.15900156,0.151859877,0.142790399,0.135701045,0.136471708,0.151240184,0.184105055,0.235196385,0.300035477,0.37058797,0.437644658,0.493547053,0.534145172,0.559291461,0.57188699,0.576112774,0.575706549,0.572938891,0.568487624,0.561976601,0.552730162,0.540339667,0.524852147,0.506630245,0.486081763,0.463471604,0.438933372,0.412660162,0.385147838,0.357336909,0.330554875,0.30626287,0.285704034,0.269592741,0.257960828,0.250207799,0.24532179,0.242180329,0.239823436,0.237616654,0.235272925,0.232757181,0.230135201,0.227437722,0.224592933,0.221445391,0.217841018,0.213729509,0.209227261,0.204600146,0.200162305,0.196131492,0.192513893,0.189092011,0.185548419,0.181685051,0.177624053,0.17384745,0.170985207,0.169393782,0.168726378,0.167789776,0.16492565,0.158926091,0.150173468,0.141447148,0.137835761,0.145508394,0.169633535,0.212233778,0.270934677,0.339257249,0.408428621,0.469985136,0.518093938,0.550704654,0.56923961,0.577197674,0.578439735,0.575892645,0.571049328,0.564200246,0.555037092,0.543223974,0.5286866,0.511594899,0.49218261,0.470594777,0.446889404,0.421199807,0.393958831,0.366045431,0.338751079,0.313552551,0.291770788,0.274247437,0.261160676,0.252040139,0.245959922,0.241825303,0.238647229,0.235721263,0.232677406,0.229418258,0.225995195,0.222479521,0.218874289,0.21509191,0.210998584,0.206501714,0.201636253,0.196600321,0.191708118,0.187267377,0.183433512,0.180118885,0.177023419,0.173798647,0.170280234,0.166661367,0.163472937,0.161310589,0.160389729,0.160157352,0.159254636,0.156032134,0.149563668,0.140780556,0.133129372,0.132214989,0.144279239,0.173945502,0.222134568,0.285128314,0.355318531,0.423417345,0.481222419,0.52379802,0.550267052,0.563100192,0.566447317,0.564358319,0.559598763,0.553339044,0.545551763,0.535703099,0.523332446,0.508304175,0.490747656,0.470858368,0.448760521,0.424546407,0.398472388,0.371182252,0.34380126,0.317808714,0.294714197,0.275666953,0.261163453,0.250970135,0.244277568,0.240003735,0.23711477,0.234846759,0.232773941,0.230740247,0.228719643,0.226682042,0.224521205,0.222064951,0.21915119,0.215725587,0.211905109,0.207962598,0.204222293,0.200904793,0.197999125,0.19524351,0.192252553,0.188750107,0.184790506,0.180822139,0.177498282,0.175267456,0.173930528,0.172450766,0.169264283,0.163132286,0.154265936,0.145189971,0.140768285,0.147090004,0.169438242,0.210092668,0.266945439,0.333652312,0.401375005,0.461429038,0.507736208,0.538117368,0.554056945,0.55928115,0.557942429,0.553207375,0.546683517,0.538645577,0.528689061,0.51637019,0.501546333,0.484373571,0.465108523,0.443924548,0.420890103,0.396128154,0.370055501,0.343548443,0.317914872,0.294649075,0.27505318,0.259876451,0.249120556,0.242088853,0.237654092,0.234629268,0.232091637,0.229544493,0.226884441,0.224229366,0.221710923,0.219328299,0.216911776,0.214188394,0.210903752,0.206942761,0.202400547,0.197573697,0.192866882,0.188640306,0.185054325,0.181985756,0.17907769,0.175931159,0.172365719,0.168606552,0.165249698,0.162946271,0.161910855,0.161519504,0.160314289,0.156601551,0.149539047,0.140276237,0.132528564,0.132082069,0.145155046,0.176119675,0.225512825,0.289270343,0.359637734,0.42745436,0.484871195,0.527389686,0.554482947,0.568756126,0.574236005,0.574643373,0.572325281,0.568078619,0.561651174,0.552473051,0.540207295,0.524926056,0.506966373,0.486672195,0.464235984,0.439745492,0.413396916,0.385735007,0.35776853,0.330878836,0.306545099,0.285993804,0.269907815,0.258296962,0.250562227,0.245713712,0.242654785,0.240435475,0.238403981,0.236231298,0.233832016,0.231234229,0.228459022,0.225454554,0.222102425,0.218283849,0.21396832,0.209275724,0.204471045,0.199878608,0.19574473,0.192113253,0.188789317,0.185436952,0.181788576,0.177868232,0.174084903,0.171083192,0.169353844,0.168768759,0.168326336,0.166381546,0.161444457,0.153320184,0.144074821,0.138232687,0.141844593,0.160568373,0.197443574,0.251321012,0.316723904,0.385309343,0.448364345,0.499298916,0.535146574,0.556601381,0.566812743,0.569655143,0.568268421,0.564366503,0.558351535,0.549911278,0.538661906,0.524519586,0.507722013,0.488626302,0.467496008,0.444440753,0.419548691,0.393123881,0.365882282,0.338980887,0.313843242,0.29184118,0.273957233,0.260553727,0.251325969,0.245441262,0.241802052,0.239334348,0.237211367,0.23495282,0.232396448,0.229578813,0.22658974,0.223460708,0.22012613,0.216461136,0.212368278,0.207865064,0.203124094,0.198435637,0.194099416,0.190289424,0.186959111,0.18384897,0.180619465,0.177065599,0.173304273,0.169802557,0.167167888,0.165740118,0.16518139,0.164342576,0.161635499,0.155923536,0.14763361,0.13955265,0.136753113,0.145387483,0.170607574,0.214361296,0.274025375,0.342585285,0.410459466,0.468360793,0.510135032,0.53449929,0.545010464,0.548231801,0.550721015,0.555927419,0.562244155,0.563178087,0.549869888,0.515175573,0.457611494,0.383234168,0.304276213,0.234909024,0.186017086,0.161444161,0.157395864,0.165028208,0.174697928,0.179744484,0.178215751,0.172161396,0.165312477,0.16053917,0.158337618,0.156929164,0.153756848,0.147553903,0.139934956,0.135660855,0.141315277,0.162844982,0.20299874,0.259799223,0.326771093,0.394850216,0.455172627,0.50157611,0.531877504,0.547595944,0.552499882,0.550775925,0.545620204,0.538671071,0.530234008,0.519917456,0.507249025,0.492011541,0.474270423,0.45423648,0.432143507,0.408254088,0.382998861,0.357136235,0.331803832,0.308374521,0.288145837,0.272000392,0.260176126,0.252251437,0.24732649,0.244318911,0.242252272,0.240446224,0.238562595,0.23652671,0.234379152,0.232141798,0.229750696,0.227065317,0.223941454,0.220315763,0.216270981,0.212040603,0.207942431,0.204244045,0.201026618,0.198110336,0.195116579,0.191663074,0.187608237,0.183216139,0.179097244,0.175894585,0.173814472,0.172255445,0.16983105,0.164968927,0.156982261,0.147177828,0.139379234,0.139376554,0.153241763,0.185046218,0.234927853,0.29843801,0.36757314,0.433147379,0.487515299,0.526528334,0.550030194,0.560897889,0.563281048,0.560902775,0.556063126,0.549530811,0.541076962,0.530191673,0.516603856,0.500426015,0.48200198,0.461653749,0.439541806,0.415733266,0.390432246,0.364217663,0.338143675,0.313605253,0.292017187,0.274436091,0.26126801,0.252189354,0.246308676,0.242472782,0.239619726,0.2370197,0.234347645,0.231598865,0.228900827,0.226341161,0.223861817,0.221248935,0.218227558,0.214590158,0.210302351,0.205546181,0.200653407,0.195982592,0.191750749,0.187940695,0.184314237,0.180564057,0.176536896,0.172415658,0.1687282,0.1660961,0.164820056,0.16444591,0.163672488,0.160783609,0.15459008,0.145583751,0.136713792,0.133229267,0.141367582,0.166208219,0.209527526,0.268605199,0.336661182,0.40478823,0.464639192,0.51071726,0.541421583,0.55856967,0.565875357,0.567170921,0.565157241,0.561002521,0.554700152,0.545776411,0.533887063,0.519091475,0.501754653,0.482286219,0.460912253,0.437685365,0.412645696,0.386113971,0.358872846,0.332198448,0.307611357,0.28651583,0.269831802,0.257768961,0.249835965,0.245047279,0.2422182,0.240292186,0.238534655,0.236566176,0.234289376,0.231755427,0.22899582,0.225966492,0.222554136,0.218653287,0.214249613,0.209482457,0.20463908,0.200053859,0.195982727,0.192451888,0.189268681,0.186096205,0.18267289,0.179003141,0.175467601,0.172672654,0.17104319,0.170425431,0.169813535,0.167619991,0.162441629,0.154197258,0.145040322,0.139512784,0.143632465,0.162934759,0.20028397,0.254392239,0.319653123,0.387710628,0.449913898,0.49980039,0.534539714,0.554937355,0.564199483,0.566241071,0.564195259,0.559779488,0.553354598,0.544592138,0.533045157,0.518582694,0.50141537,0.48189552,0.460323201,0.436895101,0.411762549,0.385307566,0.358263866,0.331783085,0.307243585,0.28591169,0.268619636,0.255603463,0.24644121,0.240244308,0.235962177,0.232646369,0.229636366,0.226621146,0.223533434,0.220410768,0.217286978,0.214044296,0.210565296,0.206668611,0.202322294,0.197654762,0.192966706,0.188588307,0.18482524,0.181724672,0.179108334,0.176610116,0.17389918,0.170907546,0.167950062,0.165554523,0.164157181,0.163644122,0.163085139,0.160970871,0.155892939,0.147703733,0.138418154,0.132530275,0.13599956,0.154618492,0.191524804,0.245631019,0.311446151,0.380410029,0.443493802,0.49377485,0.528021575,0.546971759,0.554000114,0.55344719,0.548899388,0.542503273,0.534866969,0.525654459,0.51431019,0.50050066,0.484188889,0.46554752,0.444739924,0.421876162,0.397204372,0.371200699,0.344784283,0.319271595,0.29614923,0.276670095,0.261565359,0.250828421,0.243794284,0.239518269,0.236838894,0.234889581,0.233214866,0.231497434,0.229747257,0.227952278,0.225984302,0.223666978,0.220847722,0.217404773,0.213452859,0.209216368,0.205119918,0.201424903,0.198203664,0.195315446,0.192339378,0.189021509,0.185296806,0.181512133,0.178354103,0.176255287,0.175047261,0.173692026,0.170657247,0.16462215,0.155647927,0.14612224,0.14087441,0.145933507,0.166785876,0.205906503,0.261343943,0.32702846,0.394158157,0.454029508,0.500371107,0.530825057,0.546751847,0.551737244,0.550067571,0.545028602,0.538280793,0.530266253
0.136262099,0.213144189,0.28613614,0.350627401,0.403653086,0.444161377,0.472803959,0.491370187,0.502102975,0.507123652,0.50808235,0.506036619,0.501505975,0.494637235,0.485404937,0.473766244,0.459722482,0.443307132,0.424570695,0.403621937,0.380728302,0.356429167,0.331603783,0.307447507,0.285327402,0.266520809,0.251899914,0.241683487,0.235377393,0.231945359,0.230138703,0.228845781,0.227334612,0.225326625,0.222907051,0.220326623,0.217782093,0.215273182,0.212600942,0.209497653,0.205802378,0.201572282,0.197063957,0.192597186,0.18837718,0.18437391,0.180336851,0.175964125,0.171157106,0.166211,0.161779753,0.158551803,0.156753852,0.155762733,0.154137489,0.150232267,0.143260159,0.134375488,0.127188607,0.127250012,0.14045278,0.170850834,0.218791249,0.280246975,0.347751736,0.412605532,0.467431043,0.508037914,0.533939844,0.547528457,0.552477564,0.552166728,0.548731304,0.5429296,0.534613287,0.523384704,0.509072759,0.491869065,0.472190051,0.450454087,0.426953852,0.401904246,0.375625503,0.348739941,0.322250806,0.297431728,0.275553024,0.257555064,0.243805734,0.234037672,0.227479064,0.223113626,0.21996495,0.217306465,0.214739973,0.212142902,0.209534788,0.206937645,0.204294146,0.201469999,0.198323598,0.194797148,0.190977497,0.187089426,0.183413324,0.180156385,0.177339219,0.174768576,0.172135724,0.169213417,0.166052739,0.163048235,0.160778003,0.159635255,0.159409784,0.15908021,0.157063103,0.151992476,0.143812847,0.134694333,0.129194804,0.133318507,0.152610228,0.189958262,0.244057132,0.309297664,0.377248188,0.43915998,0.488461892,0.522254953,0.541337332,0.54898295,0.549193803,0.545226564,0.53889084,0.530655171,0.520236942,0.507241187,0.491537425,0.473298595,0.452828637,0.430385859,0.406157222,0.380407283,0.353697086,0.327013409,0.301693327,0.27914233,0.260458822,0.246129977,0.235929759,0.229054036,0.22442353,0.221022275,0.218140544,0.215447833,0.212901963,0.21056749,0.20844327,0.206379187,0.204110141,0.201377201,0.198065755,0.194283325,0.190327875,0.186551173,0.183179785,0.180190359,0.177322081,0.174243363,0.170797069,0.167177467,0.163893086,0.16146539,0.159976007,0.15872607,0.156309329,0.151258944,0.1431292,0.133549259,0.126629925,0.128265515,0.144345409,0.178472317,0.230159561,0.294393289,0.362880012,0.426522523,0.478092746,0.514012526,0.534630743,0.543113928,0.543648383,0.539812166,0.533707607,0.525966471,0.516330342,0.504347271,0.489822768,0.472901577,0.453885295,0.433004943,0.410340228,0.385950521,0.36013604,0.333660284,0.307778621,0.284019556,0.263794664,0.248000144,0.236776148,0.22951594,0.225108562,0.222307682,0.220081211,0.217820018,0.215353314,0.212801009,0.21035407,0.208089479,0.205894921,0.203519348,0.200707335,0.197341068,0.193514782,0.189499989,0.185613347,0.182051297,0.178782374,0.175570553,0.172139931,0.168405769,0.164632489,0.161381398,0.159201888,0.158176008,0.157573715,0.155916843,0.151616105,0.144055321,0.134675205,0.12744314,0.12823578,0.14311328,0.176041669,0.227015538,0.29148463,0.361456387,0.427877705,0.48330199,0.523749614,0.549111497,0.562160125,0.566823614,0.566565356,0.563473082,0.558201952,0.550508903,0.539939513,0.526302674,0.509787235,0.490797259,0.469705992,0.4467213,0.421949577,0.395610656,0.36826485,0.340906901,0.314854732,0.291467377,0.271808357,0.256390614,0.245095979,0.237284384,0.232033772,0.228410193,0.225670805,0.223343758,0.221187269,0.219079056,0.216906555,0.214513309,0.211719424,0.208393816,0.204530481,0.200279081,0.195901511,0.191663033,0.187705015,0.183968176,0.180224479,0.176227722,0.171922083,0.167588315,0.163800791,0.161142277,0.159764368,0.159026944,0.157506157,0.153553857,0.146325851,0.136879704,0.128752597,0.127522134,0.139255913,0.168314399,0.215397804,0.276751792,0.344993098,0.411283817,0.4679548,0.510497065,0.53819477,0.553348567,0.559656499,0.560575909,0.558316051,0.553676113,0.546516183,0.536432884,0.523254729,0.507183341,0.488639131,0.468008209,0.445490446,0.421147514,0.395115444,0.367850636,0.340262664,0.313648311,0.289439638,0.268863245,0.252641949,0.24084617,0.232938043,0.22797692,0.224899859,0.222773863,0.220941647,0.219036407,0.216898226,0.214459837,0.211668109,0.20847408,0.204878115,0.200982569,0.196999631,0.193188915,0.189743274,0.186679088,0.183797756,0.18076029,0.177264331,0.173253264,0.169047159,0.1652899,0.16267057,0.16149129,0.161277782,0.160694465,0.157965629,0.151797183,0.142502699,0.132804968,0.127770807,0.13362393,0.155691463,0.196238517,0.253143828,0.320099556,0.388363378,0.449374067,0.497148895,0.529525697,0.547901149,0.55581359,0.557158361,0.554823589,0.550171624,0.543315377,0.533804442,0.521268428,0.505727992,0.48753925,0.467138539,0.444818628,0.420695527,0.394881169,0.367747011,0.340111564,0.313227999,0.288553832,0.2673933,0.250560504,0.238196116,0.229797848,0.224434456,0.221045609,0.218710708,0.216800239,0.214984032,0.213132282,0.211181145,0.20903445,0.206542717,0.203557679,0.200023135,0.19604482,0.191889852,0.187898832,0.184339918,0.181273538,0.178506574,0.175683027,0.172491086,0.168891734,0.165231306,0.16212504,0.160101282,0.159145851,0.158410647,0.156362449,0.151492914,0.143419139,0.133903655,0.12719383,0.129257812,0.14596358,0.180811195,0.233179907,0.297949234,0.366786199,0.430626158,0.48231929,0.518372026,0.539192849,0.547971218,0.548885463,0.545487107,0.539842244,0.532538629,0.523264051,0.51150214,0.496988617,0.479807852,0.460235455,0.438540018,0.414921723,0.389635429,0.36320732,0.336584481,0.31108911,0.288158059,0.268968687,0.254115942,0.243481852,0.236345553,0.231672258,0.228448464,0.225927641,0.223708953,0.221656253,0.219733312,0.217854253,0.215822655,0.213377691,0.210311099,0.20658717,0.202398671,0.198120629,0.194169717,0.190823628,0.188083956,0.185660398,0.18310718,0.180066551,0.176501309,0.172770719,0.169453723,0.166949684,0.165043426,0.162723648,0.158505259,0.151293625,0.141507714,0.13191054,0.127564467,0.134630555,0.158278437,0.200501633,0.258829122,0.326617877,0.3949125,0.455124126,0.501412334,0.531846967,0.548053405,0.553742859,0.552934771,0.5486355,0.542352857,0.534362236,0.524339455,0.511939733,0.497074169,0.479874443,0.460509376,0.439056529,0.415550258,0.390188646,0.363568374,0.336786457,0.311312547,0.288655691,0.269957572,0.255684864,0.245547994,0.238670408,0.233924718,0.230289803,0.227091176,0.224053853,0.221186475,0.218583193,0.216248706,0.21402062,0.211607113,0.208704875,0.205133855,0.200925332,0.196321044,0.191677961,0.187313071,0.18335658,0.179690226,0.17602059,0.172075398,0.16783462,0.163658402,0.160188219,0.157996205,0.157112624,0.156699955,0.155166214,0.150861722,0.143203755,0.133758114,0.12665865,0.127910637,0.143593984,0.177559548,0.229587633,0.294897662,0.365342074,0.431845002,0.487067827,0.527216833,0.552371645,0.565432943,0.570365499,0.570581712,0.56805882,0.563320363,0.556007668,0.545595355,0.531882195,0.515108922,0.495777301,0.47437159,0.451181934,0.426330431,0.399972642,0.372548146,0.3449324,0.318393403,0.294352252,0.274037937,0.25817111,0.246797693,0.239327416,0.234751779,0.231948212,0.229956702,0.228138966,0.226190245,0.224035453,0.221681246,0.219098695,0.216184149,0.212803075,0.208880969,0.204482741,0.19982554,0.195204984,0.190860686,0.186850463,0.183012261,0.179059072,0.174782177,0.170263071,0.165952436,0.16250927,0.160409266,0.159489045,0.158711244,0.156419492,0.151160222,0.142834029,0.133651301,0.1282892,0.132897594,0.1531156,0.191813276,0.247545093,0.314493148,0.384038646,0.447349662,0.497906608,0.532963893,0.553499711,0.562918251,0.565253598,0.563689298,0.559881652,0.554108145,0.545905655,0.53475275,0.520475076,0.503288593,0.483600035,0.461775657,0.438047733,0.412610878,0.385832834,0.358438952,0.331544352,0.306493191,0.284559591,0.266632165,0.253007285,0.243362438,0.236907074,0.232640032,0.229613734,0.22711789,0.224741077,0.22231835,0.219816782,0.217217738,0.214445775,0.211366742,0.207845499,0.203829249,0.199406935,0.194807795,0.190323666,0.186184978,0.182446806,0.178961289,0.175467391,0.171780262,0.167979698,0.164466987,0.161798961,0.160314019,0.159717662,0.158903852,0.156252708,0.150461658,0.141655094,0.132257419,0.127056958,0.132150948,0.152964091,0.192065284,0.247735481,0.314019169,0.382343752,0.444076559,0.492955621,0.526442031,0.545595284,0.553765508,0.554854468,0.551921292,0.546582964,0.539193975,0.529457723,0.517036127,0.501876016,0.484196178,0.464290712,0.442353099,0.418469014,0.392787109,0.365759991,0.338295611,0.311716873,0.287511968,0.266977244,0.250889564,0.239339203,0.231771318,0.227204419,0.224533731,0.22280003,0.221349201,0.219848169,0.21819057,0.216353001,0.214281238,0.211843229,0.208871065,0.205254353,0.201031804,0.19642684,0.191792511,0.187476922,0.18367036,0.18031791,0.177157895,0.173890923,0.170404555,0.166917621,0.163917982,0.161865236,0.160761895,0.159842016,0.157654163,0.152691584,0.144444514,0.134437644,0.126671884,0.127003834,0.141435539,0.173869352,0.22423328,0.287907792,0.356804343,0.421743712,0.475144134,0.512936142,0.535019474,0.544306974,0.544985608,0.540842097,0.534274596,0.526164526,0.516367447,0.504385443,0.489848872,0.472686862,0.453031413,0.431079591,0.407049806,0.381292148,0.354470804,0.327664009,0.302277963,0.279768613,0.261260342,0.247248154,0.23749308,0.231158116,0.227125544,0.22433832,0.222047714,0.219887086,0.217785126,0.215787409,0.213887507,0.211950293,0.209740816,0.20703007,0.203709977,0.199867018,0.19576769,0.191749431,0.18807663,0.184808027,0.181759347,0.178588688,0.175000593,0.170965717,0.166831838,0.163233724,0.160753498,0.159470609,0.15864069,0.156793074,0.152359014,0.144744252,0.135394913,0.128233894,0.129063275,0.143847816,0.176467347,0.226861066,0.290439706,0.359182041,0.424000388,0.477409565,0.515411618,0.537948744,0.547930934,0.549510162,0.546408329,0.540931487,0.533882304,0.525054567,0.513933511,0.500206083,0.483897824,0.465242402,0.444466077,0.421691597,0.397040654,0.37085752,0.34393452,0.317532401,0.293188712,0.272336126,0.255919235,0.244138455,0.23644809,0.231784584,0.228927945,0.226835884,0.224853602,0.222739181,0.220509386,0.218257168,0.215978781,0.213533354,0.210683693,0.207221835,0.203104003,0.198499321,0.193751625,0.189270027,0.185309086,0.181866999,0.178665114,0.175268677,0.171362901,0.166997954,0.162660083,0.159122776,0.157002348,0.156255925,0.155890466,0.154176571,0.149481971,0.141443154,0.132029137,0.125800745,0.12900304,0.147597525,0.184925105,0.240005022,0.307302349,0.378162732,0.443442548,0.496106054,0.532899145,0.554484864,0.564213614,0.566347241,0.564432141,0.560495217,0.555061958,0.547687237,0.537706523,0.524685588,0.50858958,0.489676793,0.468283693,0.444713939,0.419253856,0.392337511,0.364703212,0.337424416,0.311840922,0.289290579,0.270778304,0.256776731,0.247106062,0.241028442,0.237488711,0.235334081,0.233639835,0.231794304,0.229535852,0.226847041,0.223846864,0.220585778,0.217086039,0.213246089,0.208989871,0.204348725,0.199428368,0.194481153,0.189680129,0.185104507,0.180655775,0.176142633,0.171535337,0.167006956,0.163049438,0.160273763,0.158919624,0.15858174,0.157975463,0.155396505,0.149623149,0.141037559,0.132426468,0.128865066,0.136494458,0.160401951,0.202535293,0.260401004,0.327475148,0.394975168,0.454531808,0.500455017,0.530874023,0.547317041,0.553414063,0.553058869,0.549180428,0.543247861,0.535518294,0.525654923,0.513308199,0.498410026,0.481160088,0.461831533,0.440554077,0.417373479,0.392396051,0.366029954,0.339088224,0.312846554,0.288741325,0.268089906,0.251699459,0.23972001,0.231635633,0.226524384,0.223267135,0.220935854,0.218889632,0.216802463,0.214610111,0.212338371,0.209990966,0.207414916,0.204435809,0.200950705,0.196924626,0.192508686,0.187999097,0.18369127,0.17977413,0.17618648,0.172672181,0.168992715,0.165066229,0.161146761,0.15781232,0.155643882,0.154823637,0.154729373,0.153943357,0.150874313,0.14466523,0.136355446,0.129462622,0.129426047,0.14216857,0.17190166,0.219183003,0.280176042,0.34750116,0.412399051,0.467321793,0.507834172,0.533422321,0.546401334,0.550637982,0.549645955,0.545762768,0.539896837,0.531998571,0.521661517,0.508582267,0.492849043,0.474657478,0.454133308,0.431392499,0.406464468,0.379783636,0.352151655,0.324847754,0.299464142,0.277450864,0.259798622,0.246754757,0.237887607,0.232261649,0.228694305,0.226215816,0.224050878,0.221837782,0.219443716,0.216777951,0.213905439,0.21085649,0.20759945,0.204069024,0.200306868,0.196408664,0.192548508
0.392448685,0.388015902,0.379999457,0.366173395,0.346449844,0.322748445,0.298102177,0.275485602,0.256908422,0.243076286,0.233579812,0.22736376,0.223225066,0.220190448,0.217708708,0.215639724,0.214078934,0.213125319,0.212720293,0.212618977,0.212460406,0.21186633,0.210532779,0.208315537,0.205296398,0.20178232,0.198201536,0.194928086,0.192124928,0.189689233,0.187325901,0.184719539,0.18174175,0.178601575,0.175825801,0.173995066,0.173299029,0.173151471,0.17218468,0.16881582,0.162275918,0.153671983,0.146500349,0.14615808,0.158399248,0.187208505,0.232962542,0.291763775,0.35636833,0.418386115,0.47081216,0.509818667,0.535160523,0.549249863,0.555531156,0.556965968,0.555208736,0.55061735,0.54284109,0.531535532,0.516813299,0.49927382,0.479715486,0.458780801,0.436765199,0.413681945,0.389520535,0.364544389,0.339469152,0.315426747,0.293719121,0.275461451,0.26126636,0.251099634,0.24435327,0.240082265,0.237292863,0.235173574,0.233206549,0.231152012,0.228942151,0.226547531,0.223883683,0.220801552,0.217158242,0.212918229,0.208217873,0.20334713,0.198647113,0.194366852,0.19054931,0.187015004,0.183475007,0.179738038,0.175905608,0.172420058,0.169879216,0.168653553,0.1684833,0.168314454,0.166589068,0.162021871,0.154627593,0.146532637,0.142056762,0.14677617,0.165732562,0.201429738,0.25248782,0.313628174,0.377093695,0.434950875,0.481323718,0.513683777,0.53280729,0.541631191,0.543670779,0.541718238,0.537258184,0.530616049,0.521529264,0.509734537,0.495285579,0.478538823,0.459935817,0.43978715,0.418215811,0.395296071,0.371299374,0.346893903,0.323167802,0.301439313,0.282926309,0.268414281,0.258056353,0.251373744,0.247440111,0.2451676,0.243587676,0.242036841,0.240203748,0.238050005,0.235660946,0.233099487,0.230323235,0.2271913,0.22354697,0.219328516,0.214644447,0.209761354,0.204994489,0.200549171,0.196403986,0.192322198,0.188015347,0.183387834,0.178715766,0.174610655,0.171711684,0.170211705,0.169474886,0.16805042,0.164259848,0.157251994,0.148099496,0.140337054,0.1394624,0.151346081,0.180052465,0.225970611,0.285137224,0.350156051,0.412394921,0.464550465,0.502530432,0.525979341,0.537439951,0.540731896,0.539353654,0.535522817,0.530037977,0.522737771,0.513141119,0.500912684,0.486009762,0.468583528,0.448819915,0.426883823,0.403018357,0.377727169,0.351903595,0.326794712,0.303779889,0.284045183,0.268290066,0.256586096,0.248434127,0.242980043,0.239290545,0.236581751,0.234329963,0.232253742,0.230211266,0.228084691,0.22571556,0.222919883,0.219566409,0.215667141,0.211419561,0.207160465,0.203235291,0.199836812,0.196897826,0.194111801,0.191098085,0.187644923,0.183896523,0.180345516,0.177571986,0.175814511,0.174601262,0.172722246,0.168722342,0.161845449,0.15306198,0.145628362,0.144704068,0.155920544,0.18331972,0.2274919,0.284786423,0.348059856,0.408738496,0.45935959,0.49555118,0.516718712,0.525342097,0.525396407,0.520689663,0.513775611,0.505693164,0.496363279,0.485244936,0.471873566,0.456096423,0.438037639,0.417955654,0.396157057,0.373036601,0.349196579,0.325530824,0.303173268,0.283291856,0.266802221,0.254125852,0.245098879,0.239066047,0.235112333,0.232332791,0.23003861,0.22783764,0.225587424,0.223270494,0.220865051,0.218273044,0.215331513,0.211890474,0.207909725,0.203518459,0.198997598,0.194680375,0.1908098,0.187423619,0.184338222,0.181262582,0.178002826,0.174650292,0.171622449,0.169475314,0.168523214,0.168441594,0.168115695,0.165958982,0.160733251,0.152614083,0.143999732,0.139523266,0.144988664,0.165445579,0.203114356,0.25608393,0.318457272,0.381989491,0.438567969,0.482500254,0.511711385,0.52751553,0.533290905,0.532801333,0.528903366,0.52303489,0.515439365,0.505775428,0.493703246,0.479186212,0.462472369,0.443896894,0.42370466,0.402030947,0.379052204,0.355202633,0.331306835,0.308523285,0.288097473,0.271026289,0.257781436,0.248209448,0.241641605,0.237154644,0.233866045,0.231147116,0.228686919,0.226412932,0.224335228,0.222403537,0.220445353,0.218204026,0.21544507,0.212069064,0.208170034,0.204005362,0.199885597,0.196033793,0.192486508,0.189098177,0.185663947,0.182108248,0.17862929,0.175681046,0.173737614,0.172909523,0.172614151,0.171561684,0.168234968,0.161810406,0.153175414,0.145505688,0.143924833,0.154121773,0.180318421,0.223398105,0.280063947,0.34350572,0.405378558,0.458286128,0.49774566,0.522903083,0.535886986,0.540293873,0.539582141,0.536026819,0.530489231,0.522836031,0.51260674,0.499542755,0.483780214,0.465736543,0.445868361,0.424497679,0.401816191,0.378049518,0.353665743,0.329489956,0.306640651,0.286298788,0.269404334,0.256408279,0.247179524,0.241094892,0.237262947,0.234783374,0.232942579,0.23128859,0.229589943,0.227732372,0.225622159,0.223144708,0.220187748,0.216702041,0.212753889,0.208528236,0.204266393,0.200159471,0.196251728,0.192417628,0.188448986,0.184228737,0.179902406,0.175926715,0.172908654,0.171251009,0.170754561,0.170423058,0.16870043,0.164205709,0.156761896,0.148263819,0.142854134,0.146079188,0.163141511,0.196858321,0.246202429,0.306148698,0.369000524,0.426689964,0.473095988,0.505452587,0.524395081,0.53284158,0.53437772,0.531894443,0.526947372,0.51987336,0.510359828,0.498055714,0.482927919,0.465287507,0.445601414,0.424284574,0.401624903,0.377878338,0.353455705,0.329067819,0.305721679,0.284545638,0.266513487,0.252187358,0.241586586,0.234228264,0.229310374,0.22595519,0.223418739,0.221200539,0.219038942,0.216826232,0.214503529,0.211990801,0.209179515,0.205980345,0.202390855,0.198537555,0.194656859,0.191008795,0.187756373,0.184873961,0.182148794,0.179300459,0.176175453,0.172911113,0.16994646,0.167812786,0.166755865,0.166375074,0.165536025,0.162753896,0.157039136,0.148915195,0.141103171,0.138374286,0.146365095,0.16964165,0.209750445,0.264136889,0.326511052,0.388606,0.442627414,0.483385078,0.509291433,0.521985838,0.524968273,0.521979729,0.515814233,0.50789183,0.49850304,0.487373096,0.474174631,0.458781322,0.441266925,0.421793149,0.400544953,0.377787951,0.354008757,0.330025953,0.306964814,0.286063273,0.26837274,0.254479514,0.2443679,0.237480606,0.232942836,0.229848696,0.227492251,0.225463675,0.223601212,0.221856107,0.220158784,0.218358184,0.216255717,0.213700558,0.210681858,0.207358329,0.203999978,0.200863062,0.198057672,0.195480899,0.192867035,0.18995143,0.186675311,0.183309794,0.180385586,0.178398051,0.177393913,0.176672253,0.174864505,0.170536035,0.16318932,0.154254796,0.147501748,0.148431364,0.162637507,0.193664625,0.24126374,0.300896162,0.364825809,0.424411847,0.47265247,0.505944429,0.524445316,0.531103168,0.529978641,0.524664481,0.517382998,0.508905886,0.499050448,0.487335974,0.473453655,0.457411363,0.439423415,0.419727073,0.398495311,0.375913931,0.35236762,0.328601027,0.30572597,0.285027661,0.267633998,0.254189925,0.244682177,0.238489166,0.234626386,0.232073597,0.230045682,0.228110922,0.226141899,0.224160884,0.222177003,0.22009501,0.217724653,0.21486617,0.21141682,0.207441033,0.20316605,0.1988967,0.194880187,0.191183971,0.18765996,0.184039037,0.180132244,0.17603618,0.172199394,0.16924613,0.167579273,0.16694606,0.166256093,0.163901629,0.158615478,0.150585235,0.142283937,0.138454169,0.144976704,0.166877622,0.206228404,0.260880129,0.324689992,0.38924533,0.446395785,0.490541372,0.519784999,0.535636644,0.541623614,0.541570279,0.538297252,0.533135929,0.526200529,0.517046415,0.505285977,0.490891325,0.474154732,0.455462824,0.435095986,0.413194042,0.389898309,0.365567222,0.340924315,0.31704029,0.295140979,0.27631765,0.261256057,0.250085624,0.242396193,0.237403503,0.234192752,0.23194834,0.230094736,0.228317894,0.226489658,0.224553502,0.222434838,0.220015436,0.217172896,0.213851922,0.210117819,0.206151206,0.202174809,0.198345123,0.194671589,0.191023574,0.187242848,0.183313523,0.17948631,0.176246651,0.174078005,0.173088308,0.172692542,0.171600528,0.168283252,0.16187356,0.153175555,0.145261498,0.14317821,0.152617023,0.177909426,0.220137621,0.276231492,0.339555155,0.40182161,0.455554775,0.49608408,0.522326024,0.536215074,0.541246905,0.540891835,0.537526263,0.532149711,0.524744671,0.514902213,0.502338797,0.487106074,0.469511196,0.449910023,0.42855937,0.405633736,0.381389495,0.356363929,0.331474329,0.307936754,0.287018966,0.269724038,0.25653326,0.247306293,0.241369724,0.237748074,0.235443565,0.233661937,0.231916855,0.230002809,0.227881169,0.225550512,0.222964254,0.22002487,0.216642042,0.212811607,0.208663405,0.204439971,0.20040367,0.196713364,0.193338069,0.190072769,0.186672651,0.183050437,0.179421253,0.176270719,0.174097725,0.173013486,0.172416975,0.171010281,0.167318648,0.160631778,0.151998685,0.144736834,0.144004842,0.155358836,0.182723602,0.226601016,0.283358456,0.346021888,0.406318976,0.457131242,0.494348251,0.517442388,0.528719845,0.531783497,0.529981904,0.525457124,0.5189899,0.510441399,0.499388436,0.485595533,0.469166292,0.450431114,0.429750355,0.407407774,0.38366684,0.358941232,0.333950666,0.309742871,0.287534746,0.268430873,0.253139038,0.24180258,0.234008648,0.228957471,0.225711632,0.223433748,0.221536005,0.219711732,0.217866388,0.215996176,0.21407597,0.212002956,0.209614122,0.206761689,0.203401089,0.199642255,0.195726877,0.191932506,0.188443976,0.18526082,0.182201896,0.179028794,0.175637813,0.172210154,0.16919822,0.167089154,0.166017267,0.165431825,0.164089367,0.160543746,0.154068315,0.145655785,0.138553903,0.137878469,0.149201198,0.176525343,0.220461186,0.277455333,0.340521999,0.401254732,0.452298018,0.489270683,0.511434827,0.521030189,0.521775406,0.517293917,0.510087109,0.501277861,0.49095844,0.478772436,0.464389309,0.447712485,0.428859588,0.40806181,0.38562461,0.361996062,0.337885669,0.314315846,0.292520213,0.273688093,0.258649364,0.247642919,0.24027461,0.235679071,0.232815994,0.230769133,0.228940376,0.227081342,0.225186024,0.223315782,0.221454245,0.219450174,0.217069229,0.214115872,0.210550506,0.206543847,0.202428721,0.198564284,0.195177007,0.192248174,0.189526041,0.186672193,0.183490332,0.180108011,0.176985637,0.174676044,0.173412537,0.172734638,0.171443577,0.168071427,0.161817053,0.153587002,0.146573948,0.145897136,0.157178702,0.184481633,0.228443461,0.285485515,0.348556974,0.409193055,0.460029146,0.496752757,0.518762936,0.528459634,0.529679901,0.526075038,0.520067137,0.512623928,0.503673858,0.492760287,0.479549188,0.464028015,0.44641806,0.426988407,0.405947006,0.383493682,0.35999768,0.336163845,0.313062327,0.291959159,0.274005474,0.259913294,0.249761966,0.243014933,0.238726435,0.235850191,0.23351865,0.231200957,0.228702718,0.226046941,0.223312062,0.220502599,0.217511663,0.214177954,0.210384684,0.206160277,0.201701359,0.197312355,0.19326922,0.189679207,0.186419362,0.183197641,0.179749197,0.176055095,0.172465998,0.169601692,0.168006397,0.167680979,0.167774699,0.166701334,0.162842669,0.155644194,0.146669604,0.139958774,0.141308563,0.156484591,0.189002801,0.238400879,0.299869777,0.365483885,0.426600565,0.476401254,0.511565964,0.532499106,0.542255016,0.544811875,0.543516271,0.54025946,0.535489698,0.528767033,0.519469693,0.507263002,0.49221469,0.474657754,0.454947145,0.433339123,0.410030282,0.385331311,0.359862857,0.334614322,0.310840282,0.289800288,0.272457886,0.259239687,0.249969091,0.243967422,0.240287868,0.237976717,0.236276735,0.234699018,0.232998106,0.231063592,0.228817274,0.226156394,0.222972457,0.219207485,0.214921312,0.210318878,0.205686982,0.20128333,0.19721727,0.193390907,0.189593132,0.185653997,0.181657791,0.177991797,0.175216452,0.173679676,0.173129903,0.172520476,0.170283088,0.165135959,0.15716429,0.148651067,0.144162247,0.149506598,0.169842741,0.207569438,0.260963571,0.324267452,0.389248587,0.447685256,0.493678567,0.524941747,0.542626166,0.550068626,0.551078876,0.548590667,0.544095982,0.53783722,0.529393523,0.518314125,0.504465412,0.488031212,0.469320485,0.448600864,0.426021735,0.401788791,0.376342334,0.350520055,0.325527627,0.302717854,0.283276405,0.26790777,0.256681737,0.249083051,0.244207705,0.241045086,0.238727506,0.236676098,0.234594,0.232378233,0.229987195,0.227366902,0.224411744,0.221026036,0.21718642,0.212991439,0.208648474,0.204414424,0.200450671,0.196743422,0.193113443,0.189309957,0.185236949,0.181112003,0.177454105,0.17483396,0.17347656,0.17286852,0.171701751,0.168324748,0.16171625,0.152531783,0.143780345,0.140605936,0.148912338,0.173318512,0.215112314,0.271349529,0.335320425,0.398527989,0.453230885,0.494514756,0.52117725,0.535113434
0.160324415,0.166495632,0.170381227,0.171275029,0.169698293,0.166976223,0.164287351,0.161788224,0.158430701,0.152720122,0.144110545,0.134313118,0.127736061,0.130613752,0.148974291,0.186191852,0.241191726,0.308208965,0.378344998,0.442315447,0.49320645,0.528097958,0.548032899,0.556620901,0.558108378,0.555797137,0.551337003,0.544917524,0.535994575,0.524050481,0.509009799,0.491213919,0.471128603,0.449072134,0.425168771,0.399540857,0.372593034,0.345199883,0.318675766,0.294519621,0.274030238,0.257946243,0.246260519,0.238285712,0.232933591,0.229077126,0.225844272,0.222749536,0.219656142,0.216626564,0.213744486,0.210986718,0.208197271,0.20516727,0.20176556,0.198030206,0.194152677,0.190357379,0.186752339,0.183251861,0.179634129,0.175719351,0.171575731,0.167617037,0.164476312,0.162640546,0.161987862,0.161505092,0.159476708,0.154264535,0.145482734,0.13506121,0.127571106,0.129384767,0.146735208,0.183323071,0.238482108,0.306804299,0.379525285,0.447158123,0.502276142,0.541312442,0.564769236,0.575999161,0.579309753,0.578282883,0.574906496,0.569619511,0.561952874,0.551285213,0.537331528,0.520232819,0.500357265,0.478044055,0.453489501,0.426843011,0.398437929,0.369004715,0.339728767,0.312099326,0.287598728,0.267352604,0.251873465,0.240984453,0.233933999,0.229642372,0.226985079,0.22502273,0.223121123,0.220951,0.21839901,0.215448538,0.212092265,0.208313509,0.204128964,0.199644143,0.195061176,0.190608769,0.186421808,0.182447595,0.178460751,0.174215078,0.169669425,0.165146782,0.161278713,0.158680368,0.157468755,0.156895349,0.155406764,0.151304841,0.14387417,0.134512852,0.127233319,0.128044782,0.143191191,0.176810013,0.228985602,0.295128227,0.367072606,0.43550447,0.49270578,0.534496296,0.560689297,0.574107209,0.578816219,0.578445137,0.575221094,0.569885343,0.562226821,0.551781582,0.538319352,0.521966443,0.503046054,0.481842671,0.458485469,0.433034596,0.405717317,0.377169437,0.348530618,0.32131519,0.297090271,0.277084039,0.261877423,0.251293468,0.244513999,0.240363631,0.237644726,0.235403257,0.233050414,0.230333459,0.227209777,0.223705368,0.219826467,0.215551873,0.210885808,0.205918623,0.200840088,0.195879007,0.191191097,0.186759817,0.182385345,0.177800399,0.17287778,0.167818473,0.163178527,0.159643604,0.157591256,0.156642225,0.155503638,0.152359581,0.145836549,0.136233306,0.126424929,0.121821464,0.129081856,0.153863993,0.198456465,0.260355313,0.332533892,0.405412998,0.469745203,0.519212652,0.551724345,0.56906406,0.575301129,0.574835741,0.570925278,0.565130204,0.557606742,0.547829136,0.535268465,0.519735933,0.50136406,0.480398548,0.457027746,0.431393916,0.403781502,0.374851713,0.345755154,0.318017908,0.293219195,0.272589773,0.25670101,0.245369568,0.237802148,0.232902386,0.229604622,0.227107149,0.224939588,0.222881458,0.220812105,0.21858825,0.216012295,0.212894,0.20915336,0.204890109,0.200364453,0.195884344,0.191652671,0.187663128,0.183721652,0.179606751,0.175291813,0.171085209,0.167550988,0.165174939,0.16390542,0.162843193,0.160379758,0.154927582,0.14607603,0.135678965,0.128229936,0.130060718,0.147401317,0.183951694,0.239001813,0.307029057,0.379088614,0.445484918,0.498614163,0.534826067,0.554674084,0.561698081,0.560490246,0.554953701,0.547373458,0.538413225,0.527723053,0.514678239,0.498876883,0.480273681,0.459058212,0.435488751,0.409849731,0.382569056,0.354399351,0.326509351,0.300374616,0.277469946,0.258881059,0.245004814,0.235469781,0.229307284,0.22529307,0.222314624,0.219623629,0.216897568,0.214124529,0.211398641,0.208738795,0.206013767,0.202992469,0.199473406,0.195412554,0.190975489,0.186480391,0.182254346,0.178473198,0.175073439,0.171799295,0.168381653,0.164763204,0.161229264,0.158318619,0.156489293,0.155670287,0.154966438,0.152805483,0.147663028,0.139197907,0.129309491,0.122484298,0.124981838,0.142909096,0.179835504,0.234972936,0.302826826,0.374609526,0.440889522,0.494369387,0.53166041,0.553452091,0.563247634,0.565431666,0.563578832,0.559607469,0.553868064,0.545826464,0.534841594,0.520652457,0.503450843,0.483661371,0.461668439,0.437695937,0.411910131,0.384665075,0.356722708,0.329294661,0.303851821,0.281771156,0.263970566,0.250684555,0.241463956,0.235382787,0.231353344,0.228420136,0.225930858,0.223549578,0.221149617,0.218668072,0.216003746,0.213002047,0.209517905,0.205507066,0.201083516,0.196498922,0.192040803,0.187893358,0.184036892,0.180257478,0.176289647,0.172036277,0.167740135,0.16396727,0.16133344,0.160049472,0.1595181,0.158288891,0.154587393,0.147369659,0.137512396,0.128517303,0.126166225,0.136966213,0.165824098,0.213881994,0.277521727,0.349098881,0.419187176,0.479407692,0.524670013,0.553988877,0.569752689,0.576008455,0.576647145,0.574225329,0.56970514,0.562921619,0.553325317,0.540567561,0.524710352,0.506097541,0.485088966,0.461880729,0.436536266,0.409205712,0.380395532,0.351120448,0.322831492,0.297127672,0.275362704,0.258303629,0.245970347,0.237705098,0.232428454,0.228972634,0.226367415,0.223989848,0.221556046,0.218999603,0.216318164,0.21346571,0.210331387,0.206796539,0.202821853,0.198502174,0.194044671,0.189670859,0.185494493,0.18145558,0.177372249,0.173106555,0.168757704,0.164745593,0.161671763,0.159953942,0.159386041,0.158897681,0.156785367,0.151511997,0.14286326,0.132949926,0.12644163,0.129638559,0.148495966,0.18628837,0.241917357,0.309701705,0.380866095,0.446164578,0.498552886,0.534841437,0.55579287,0.564864475,0.566342667,0.56372941,0.558939315,0.552380083,0.543591032,0.531970693,0.517235235,0.499494495,0.479061188,0.45621805,0.43113357,0.403985943,0.375210029,0.345700975,0.316827555,0.290209139,0.267333128,0.249169148,0.235936598,0.227110753,0.221649453,0.218336525,0.216104456,0.21422627,0.212336748,0.210320052,0.208149539,0.205767807,0.203057228,0.19989662,0.196254554,0.192252496,0.188147361,0.184226717,0.180662552,0.177405275,0.174194497,0.170710384,0.166807314,0.162700809,0.158965104,0.15626855,0.154915751,0.154420725,0.153415222,0.150120582,0.14336328,0.133778822,0.124599323,0.121439827,0.130860848,0.158072893,0.204673616,0.26745285,0.338917906,0.409429561,0.470087641,0.515172915,0.543214371,0.556442728,0.559119558,0.555623635,0.549090423,0.540969472,0.531372548,0.519784506,0.505693036,0.48889087,0.46945824,0.447603179,0.423559997,0.397645861,0.370431959,0.342888139,0.316361319,0.292340839,0.272088881,0.256296246,0.244917541,0.237253648,0.232234208,0.228770005,0.22603027,0.223552809,0.221180665,0.218895573,0.216651326,0.21429071,0.211574846,0.208293715,0.204388115,0.200011106,0.195486644,0.191173731,0.187295758,0.183825154,0.18050148,0.177000741,0.173183342,0.16927448,0.16582646,0.163406578,0.162121005,0.161245652,0.159281732,0.15461527,0.146651413,0.136949522,0.129703883,0.131065184,0.147286536,0.182303026,0.23577476,0.302556705,0.373969447,0.440410554,0.494214503,0.531585556,0.552925453,0.5616592,0.562297662,0.558665666,0.552948401,0.545694391,0.536461506,0.524605063,0.509803233,0.492172261,0.472076904,0.449870935,0.425777745,0.399989166,0.372904798,0.345343712,0.318570967,0.294084952,0.273240959,0.256872902,0.245075587,0.237232136,0.232261242,0.228972066,0.226383992,0.223902799,0.221317084,0.218657191,0.21600584,0.213353752,0.210556942,0.207398154,0.203706996,0.199467548,0.194849162,0.190133779,0.185569075,0.181227807,0.176965815,0.172530128,0.167780689,0.162901935,0.158444272,0.155095606,0.153229017,0.152445191,0.151429439,0.148379386,0.142009389,0.132787644,0.123791005,0.120563921,0.129726435,0.156673867,0.203257842,0.266507913,0.339080672,0.41136003,0.474358395,0.522210653,0.553300616,0.569749365,0.575742499,0.575587354,0.572321344,0.567261768,0.560380726,0.551067137,0.538803581,0.523482133,0.505347195,0.484749918,0.461944809,0.437076048,0.410352546,0.382286681,0.353834771,0.326333127,0.301236786,0.279767479,0.262616095,0.249813865,0.240803934,0.234666808,0.230399681,0.227148114,0.224325185,0.221608523,0.218855401,0.215998331,0.212974356,0.209713687,0.206176783,0.202402989,0.198527241,0.194736337,0.191172772,0.187832646,0.184530829,0.180981722,0.176985052,0.172627803,0.168366075,0.164877202,0.162680142,0.161675593,0.160881117,0.158635469,0.153375784,0.144791394,0.134850319,0.128084566,0.13072265,0.148758163,0.185617211,0.240421751,0.30770398,0.378818627,0.444523419,0.497658241,0.534850215,0.556683534,0.566503041,0.568575613,0.566461274,0.562165299,0.556167419,0.548024744,0.537093948,0.523015618,0.505832064,0.485832558,0.463332021,0.438567557,0.411782438,0.383434314,0.354380238,0.325904069,0.299531587,0.276690877,0.258353637,0.244800297,0.235597941,0.229788373,0.226198943,0.223754644,0.221678741,0.219541919,0.217178047,0.214547823,0.21162479,0.208356913,0.204698732,0.200672632,0.196406431,0.192104535,0.187959178,0.184043905,0.18025755,0.176375006,0.172208198,0.167798739,0.163525405,0.160008673,0.157784077,0.156861071,0.156414311,0.154878186,0.150596673,0.142902338,0.133187844,0.125376761,0.125323568,0.139116538,0.170817575,0.220575046,0.284007476,0.353245774,0.419263466,0.474532388,0.514914854,0.540127771,0.552809101,0.556818804,0.555614903,0.551320942,0.544649513,0.535424957,0.523255346,0.507991625,0.489825807,0.469127674,0.446231527,0.421356791,0.394725585,0.366794041,0.338439847,0.310957025,0.285836862,0.264397942,0.247438658,0.235047975,0.226649357,0.221240654,0.217724825,0.2151946,0.213081287,0.211134031,0.209285441,0.207484193,0.205595379,0.203395305,0.200665251,0.197305948,0.193416962,0.189270262,0.185193587,0.181406598,0.177910245,0.174507668,0.170965002,0.167239068,0.163621857,0.16066716,0.15885625,0.158135749,0.157597369,0.155610324,0.150537215,0.141899827,0.131479363,0.123720067,0.124956564,0.14148736,0.177133936,0.231320983,0.298626726,0.37012684,0.436066218,0.488739998,0.524415333,0.543638115,0.550030436,0.548320356,0.542545263,0.535056798,0.526495138,0.516409722,0.504041583,0.488880364,0.470840797,0.450155953,0.427196105,0.402385111,0.37626568,0.349631713,0.323593103,0.299469785,0.27851879,0.261619651,0.249028932,0.240350635,0.234709454,0.231049204,0.228429496,0.226209199,0.22407929,0.221947383,0.219777508,0.217469941,0.214839291,0.211689133,0.20793625,0.203694397,0.199276483,0.195066588,0.191350182,0.188148533,0.185205679,0.182105089,0.178539,0.174546411,0.170568897,0.167238671,0.164921649,0.163265566,0.161062956,0.156683523,0.149073495,0.13893624,0.12951858,0.126379151,0.13594568,0.16321509,0.209568054,0.271630761,0.341904737,0.410921797,0.470117942,0.514141379,0.541793328,0.555373773,0.558999652,0.556738231,0.551367684,0.544062287,0.534817939,0.523181422,0.508844994,0.491866119,0.472569624,0.451305996,0.428293567,0.403675096,0.377721486,0.351068227,0.324785394,0.300258112,0.278826699,0.261445286,0.248386015,0.239221554,0.233026838,0.22868333,0.225244402,0.222111746,0.219061042,0.216131721,0.21340795,0.210866818,0.208326055,0.20552418,0.202226456,0.198376013,0.194111126,0.189732798,0.185507408,0.181566449,0.177799248,0.173965403,0.169900179,0.165722728,0.161880337,0.158983305,0.157360149,0.156643275,0.155604561,0.152524573,0.146153002,0.136868107,0.127563239,0.123523406,0.131178968,0.155905417,0.199760155,0.26017689,0.330287229,0.400894901,0.463202137,0.511288181,0.543236399,0.560802994,0.567806393,0.568317762,0.565303759,0.560131003,0.552860543,0.542996016,0.530096982,0.514109156,0.495354038,0.474244861,0.451101782,0.42607132,0.3993338,0.371305541,0.342894556,0.315396113,0.290371751,0.26920176,0.252733211,0.2410673,0.233593283,0.229232413,0.226711553,0.224976459,0.223296684,0.221324965,0.218965785,0.216245277,0.213148987,0.209630495,0.205675956,0.201299347,0.196645162,0.191958069,0.187423144,0.183114741,0.178959208,0.17472893,0.17034606,0.165974188,0.162071797,0.159259581,0.157838825,0.157459027,0.156886321,0.154435348,0.148805251,0.140231076,0.131422198,0.127417136,0.134470284,0.157923631,0.199983706,0.258390739,0.326667895,0.395881634,0.457374937,0.505157086,0.537144887,0.554827995,0.561858923,0.562210193,0.558880119,0.553299512,0.545629262,0.535436771,0.522318551,0.506190918,0.487333867,0.466129866,0.442900629,0.417868109,0.391378469,0.364017592,0.336832228,0.311102082,0.288264721,0.269333097,0.254810904,0.244510678,0.237647398,0.233164331,0.230019984,0.227368422,0.224699272,0.221864512,0.218825142,0.215597022,0.212145322,0.20842544,0.20435154,0.199958179,0.195359986,0.190781772,0.186406224,0.182300657,0.178306473,0.174192448,0.169831583
