0.033508398,0.019684831,0.01997061,0.041769538,0.083304533,0.135552932,0.187353922,0.230445582,0.26180281,0.282779855,0.296543608,0.305836005,0.312201457,0.316451278,0.31936612,0.321816854,0.324245653,0.326161606,0.326480957,0.324977233,0.323987297,0.328595497,0.343924471,0.370428923,0.400886322,0.423085957,0.428038959,0.417273233,0.400966175,0.385946895,0.364661131,0.320442346,0.251622432,0.194468644,0.215393906,0.363712867,0.616065206,0.864617037,0.973999373,0.872553843,0.606348558,0.309775253,0.115004719,0.071539284,0.133450103,0.212692899,0.247413506,0.233161401,0.204333492,0.193682982,0.207050809,0.228107748,0.239418902,0.236841041,0.227291734,0.217808405,0.208870173,0.196277466,0.17627247,0.147995146,0.113106922,0.07558859,0.042301963,0.021970534,0.021563381,0.042654086,0.080952583,0.128971236,0.179009841,0.224595568,0.261149945,0.287029205,0.304089971,0.316164751,0.326045584,0.333860143,0.338533677,0.340402015,0.341594159,0.343638294,0.345455556,0.344781529,0.342024935,0.342294769,0.352593294,0.375755144,0.406168794,0.431599818,0.440980114,0.432715556,0.415832726,0.400573009,0.385182778,0.353637675,0.293736393,0.224837118,0.20609199,0.303109914,0.527557974,0.800164695,0.981669439,0.961897247,0.740367764,0.430673168,0.18262933,0.084736976,0.121475475,0.208557816,0.265951951,0.267839683,0.239662375,0.219579756,0.224008759,0.24241088,0.255733303,0.255255926,0.245619597,0.234871012,0.225081471,0.21198805,0.190749129,0.160314162,0.12339578,0.084688916,0.050160641,0.026765243,0.020640306,0.03421316,0.064792096,0.105997152,0.150587875,0.192516522,0.227737449,0.25458356,0.27382643,0.287668755,0.29785282,0.304623072,0.30775771,0.308344383,0.308727953,0.310238938,0.31153145,0.310332463,0.307497268,0.308803881,0.321305015,0.346503624,0.376685513,0.398915004,0.404440841,0.395374793,0.381413285,0.367989572,0.347301933,0.304944386,0.241998541,0.193455661,0.217930387,0.353972533,0.57309445,0.775184292,0.844280911,0.729168397,0.48410674,0.233456935,0.087349779,0.075171601,0.14423594,0.214305028,0.237394172,0.218341405,0.19148621,0.18352519,0.195230865,0.210360049,0.215378386,0.209651617,0.200563612,0.193235698,0.186071954,0.173963045,0.153275259,0.123781263,0.088075113,0.051093392,0.019972055,0.002500154,0.003974819,0.024762344,0.060561328,0.104693189,0.150302064,0.191588393,0.224759676,0.248938711,0.265972509,0.278553436,0.288129844,0.294729586,0.298613811,0.301287154,0.304219449,0.306959821,0.307770127,0.307055858,0.309783347,0.322928485,0.348861745,0.380678013,0.405088736,0.411943036,0.402321108,0.386643314,0.372633228,0.354271524,0.316018238,0.254727516,0.201498696,0.216459471,0.346906544,0.575256979,0.804819912,0.909505596,0.818895653,0.572120434,0.293879464,0.110002842,0.069423346,0.129645866,0.206632184,0.240645404,0.226980034,0.198489193,0.186729095,0.197766499,0.216704242,0.227475653,0.226114248,0.218616674,0.211118349,0.204071438,0.193826587,0.176813548,0.151635788,0.119311386,0.083805766,0.052475825,0.034234424,0.035463278,0.056850121,0.093799899,0.139409757,0.186950667,0.230630712,0.266049322,0.291437371,0.308393038,0.320364289,0.329743056,0.336569756,0.340191228,0.34155658,0.342959613,0.345355304,0.346823442,0.344832876,0.340456675,0.33979412,0.350045756,0.372903553,0.401070849,0.421824234,0.425883381,0.414609674,0.398187383,0.384131288,0.365914572,0.326218322,0.259312397,0.19588993,0.200926462,0.330780499,0.574836223,0.834147106,0.969896783,0.895550108,0.641306391,0.335970436,0.119251095,0.054362523,0.1052807,0.184883785,0.225338866,0.215285105,0.186052444,0.171936317,0.182301935,0.203024947,0.216142446,0.215383432,0.206160058,0.195824849,0.186314911,0.174480074,0.156384463,0.130224591,0.096893935,0.060208898,0.027263557,0.007114775,0.007097106,0.029121723,0.068959639,0.118736801,0.17018843,0.216637277,0.253847442,0.280615095,0.298743351,0.31151221,0.321300584,0.328517721,0.332857038,0.335100481,0.336954492,0.339047437,0.340043004,0.338905612,0.338281972,0.344568716,0.362931279,0.391076866,0.418178914,0.431634892,0.426915429,0.411301776,0.396093404,0.382691653,0.357091669,0.30400901,0.233947111,0.197373798,0.261422385,0.454412748,0.720497972,0.932295024,0.966943577,0.79270252,0.495585951,0.221588589,0.080049322,0.083151467,0.161065575,0.228584599,0.244462486,0.222630516,0.200524349,0.201080073,0.21958893,0.237532846,0.242775532,0.236803757,0.227412537,0.218724083,0.208536775,0.192432914,0.168093417,0.136239814,0.099922985,0.064503539,0.037582567,0.026949282,0.037100946,0.067189548,0.111960282,0.164198581,0.216476566,0.262062447,0.296272371,0.318191367,0.330856098,0.338881881,0.345380181,0.350974225,0.355237955,0.35813334,0.359675841,0.359158929,0.356339557,0.354113472,0.358972086,0.376688309,0.405939384,0.436292245,0.454259168,0.453488532,0.439701055,0.424044308,0.409342102,0.38338402,0.331069494,0.260358883,0.217907033,0.269596888,0.448215487,0.706807155,0.925171753,0.979588151,0.828832213,0.54725914,0.275254089,0.125660112,0.119109175,0.192086809,0.259698802,0.276685281,0.253158154,0.225938932,0.220083823,0.233225945,0.247545511,0.250037534,0.241031158,0.227925219,0.215359636,0.202081237,0.184428178,0.160171129,0.129322209,0.093785367,0.058051895,0.029660682,0.016997073,0.025104586,0.053046006,0.094938298,0.143055723,0.190154688,0.230378453,0.260075947,0.278936691,0.28996235,0.297302244,0.303513916,0.308770822,0.312321068,0.313971921,0.313974492,0.312494119,0.310650807,0.312308266,0.323173015,0.345826837,0.374776318,0.39782116,0.404754346,0.395897965,0.380808682,0.366257504,0.345344658,0.302708204,0.237192729,0.182452825,0.198809948,0.329849636,0.552848876,0.7696453,0.859225136,0.760014587,0.517205704,0.254115911,0.088902598,0.06210454,0.127247625,0.201879208,0.230859235,0.213561492,0.184285051,0.173421568,0.184822073,0.202197921,0.209842593,0.20528705,0.195645438,0.186818024,0.178136103,0.165262787,0.145120111,0.117464996,0.084069117,0.048818312,0.018595997,0.001975645,0.005093623,0.028169009,0.066015977,0.111578834,0.158713552,0.202472908,0.238708988,0.264990373,0.281948846,0.292792546,0.300898369,0.307896844,0.313883647,0.318585788,0.321632334,0.322388553,0.321253527,0.321983458,0.331375398,0.353964252,0.38545921,0.412560455,0.422181703,0.41284754,0.396078512,0.383584192,0.371606028,0.341151605,0.281011362,0.216091599,0.209468413,0.322098954,0.553213681,0.813085349,0.964268783,0.911493662,0.672167132,0.368220074,0.143432469,0.071543355,0.123969132,0.21228618,0.261371895,0.254003307,0.221665796,0.203043484,0.211140369,0.232067479,0.246195182,0.246408827,0.238661156,0.23069537,0.223663431,0.21329352,0.195507206,0.169289784,0.136087332,0.099458843,0.066088404,0.045146029,0.044168883,0.06450486,0.100840418,0.145101943,0.190551558,0.232736892,0.268382316,0.295226041,0.313221926,0.324767722,0.332776838,0.338592807,0.342130905,0.343568145,0.343863604,0.343463532,0.341780504,0.339399988,0.340639794,0.351918893,0.375401542,0.40382177,0.423352864,0.4240967,0.408827281,0.389964965,0.375281369,0.356009074,0.313234899,0.243530551,0.182614627,0.197872506,0.341387775,0.593618862,0.848956229,0.969739924,0.877662384,0.612165205,0.306301438,0.097424224,0.042653741,0.100505508,0.181945419,0.220939082,0.209448183,0.180814935,0.168723125,0.180503694,0.200949182,0.21298198,0.21186781,0.20327085,0.193293196,0.182742804,0.168800864,0.148780343,0.121519847,0.087513788,0.050266042,0.017657895,0,0.004726152,0.032088502,0.075663084,0.12655793,0.177102957,0.221827096,0.257211535,0.28211923,0.298263785,0.308994361,0.31683425,0.322292379,0.325102952,0.325918509,0.326066405,0.326066807,0.325819587,0.327105506,0.334903954,0.353966981,0.382530761,0.410049239,0.423551558,0.418382371,0.402568477,0.388156113,0.375974786,0.350416483,0.295630969,0.224124875,0.189764259,0.261310874,0.464848135,0.739593355,0.954017927,0.984718907,0.803059281,0.499509941,0.22321772,0.083934651,0.091702401,0.173430069,0.241490006,0.25448785,0.22839419,0.203276698,0.203465104,0.22379054,0.244247716,0.251399659,0.246185556,0.23650285,0.227016137,0.216347048,0.200767549,0.177906833,0.14760574,0.112082975,0.077028059,0.051564941,0.044828201,0.060970529,0.097010221,0.145238437,0.197326139,0.246533736,0.287815883,0.318097177,0.337455629,0.349279384,0.357967433,0.365913555,0.372753377,0.377217419,0.378957607,0.378464967,0.376425438,0.374661412,0.377678988,0.391245078,0.417000539,0.447831698,0.470360237,0.47468686,0.462830426,0.446067982,0.431367005,0.410212116,0.365320668,0.295660051,0.238329256,0.259106614,0.405374806,0.652754326,0.89501803,1,0.897901931,0.633478621,0.337719462,0.140084398,0.089928446,0.143442979,0.215333207,0.245561634,0.229758338,0.200702394,0.188778468,0.198321515,0.213571596,0.219342325,0.213550963,0.203359131,0.194373564,0.185534784,0.172224283,0.151216418,0.122275725,0.087516722,0.05160751,0.022336017,0.008622761,0.015945466,0.043147379,0.083808245,0.130465175,0.17732815,0.219874676,0.25388076,0.276480622,0.288227125,0.293098261,0.295737017,0.298590956,0.301525015,0.303456714,0.303855119,0.303366584,0.304356591,0.311088273,0.327600036,0.35309682,0.379094844,0.393421241,0.38981652,0.373847154,0.356663651,0.340467957,0.311985774,0.256955177,0.187535823,0.154396237,0.22017013,0.404567233,0.645911855,0.821873049,0.826015776,0.644347997,0.368912614,0.135265404,0.033380028,0.060087907,0.142125336,0.201199725,0.206025408,0.177048104,0.15269665,0.15323567,0.170961036,0.186533479,0.189446214,0.183464823,0.177097394,0.173015464,0.166889716,0.153452189,0.131244621,0.102307627,0.070149074,0.039713575,0.018170071,0.013175041,0.028722399,0.062511562,0.107470125,0.155622971,0.20069746,0.238508098,0.266895892,0.286287383,0.299558421,0.310056637,0.319194296,0.32616768,0.329885613,0.330582665,0.329426724,0.327649546,0.327347873,0.332806721,0.34875494,0.374966356,0.402651477,0.41874251,0.41648685,0.401816103,0.386483519,0.372552636,0.345698749,0.290719501,0.22048161,0.188708869,0.262255617,0.463272254,0.727758209,0.925820081,0.941600796,0.755432288,0.461294405,0.203336184,0.081488744,0.098260619,0.17973501,0.242966613,0.252037345,0.22529208,0.201456304,0.201910597,0.219626125,0.235229411,0.237836989,0.230871601,0.222757611,0.21641974,0.20794942,0.192269527,0.167608679,0.135471346,0.099310897,0.064867656,0.040427105,0.034021587,0.048855194,0.081403901,0.124210087,0.170222458,0.214574562,0.253625255,0.284298531,0.305288277,0.318172267,0.326236075,0.331943293,0.335877816,0.337911136,0.338390019,0.337708313,0.335734493,0.333276104,0.334406259,0.345417729,0.369030027,0.398832828,0.421135764,0.425078317,0.412094319,0.39391189,0.378561697,0.358017297,0.31413515,0.244209435,0.184487059,0.202134097,0.347854597,0.6002626,0.8530084,0.969816709,0.875164408,0.610592,0.309046868,0.10579754,0.055516932,0.11537678,0.196509386,0.234033473,0.221296597,0.19260703,0.181712911,0.195032666,0.21608341,0.227195285,0.224305562,0.214440542,0.204520826,0.194912517,0.181608035,0.161125151,0.132612729,0.097598786,0.060479131,0.029289628,0.01384511,0.020886374,0.050175721,0.095152414,0.147037736,0.198264877,0.243195341,0.277926273,0.301099948,0.314823015,0.32338755,0.330170368,0.335730406,0.338978921,0.339537772,0.338303369,0.336280971,0.334400886,0.3353283,0.344253075,0.36519993,0.395149326,0.422546188,0.434500016,0.427538564,0.410920991,0.396605284,0.38379356,0.355599642,0.297530022,0.22617562,0.198648889,0.281485352,0.492267403,0.760941119,0.954176097,0.957797938,0.758097833,0.455410877,0.196515358,0.078911352,0.100009293,0.182254912,0.242930912,0.249200658,0.22216302,0.200812286,0.204807068,0.225387401,0.242694907,0.246066634,0.238897916,0.229322702,0.220387877,0.209013901,0.190996349,0.164876338,0.132102249,0.096420099,0.064167662,0.043828002,0.042612396,0.062442685,0.099159473,0.145553575,0.194972407,0.242260015,0.282967756,0.31371941,0.333938337,0.346403397,0.35503478,0.361942167,0.367059174,0.37004389,0.371707177,0.372940778,0.373476639,0.373264906,0.375130047,0.384696885,0.405318012,0.432591976,0.45500138,0.462119319,0.453030618,0.435620539,0.415826033,0.38759324,0.337660127,0.266551984,0.208211163,0.222759105,0.354833031,0.584039577,0.813056595,0.917085394,0.826776378,0.580493883,0.301179836,0.113993808,0.06916452,0.126250592,0.202210051,0.236913809,0.224647503,0.197706314,0.187422906,0.19945276
0.317212965,0.291128579,0.277450257,0.27088359,0.249435227,0.20053267,0.148526425,0.153047525,0.267677503,0.485348004,0.718700869,0.843599171,0.781603545,0.558144955,0.287620283,0.095860033,0.041122835,0.091741892,0.168195666,0.20737639,0.198151164,0.16986503,0.15539454,0.164254214,0.183453669,0.196173487,0.196613253,0.189741463,0.181872972,0.174131266,0.163472055,0.146830032,0.123133925,0.093189775,0.060134227,0.030457377,0.012827484,0.013904437,0.034438729,0.069345206,0.111324418,0.154230246,0.193757948,0.226747539,0.251398505,0.268223597,0.27973005,0.288391893,0.295045374,0.299476864,0.302034491,0.303790191,0.305133603,0.305417602,0.305176408,0.308398234,0.32078596,0.343922197,0.370892603,0.389290407,0.390734122,0.378277902,0.363024382,0.351023229,0.333231973,0.292641917,0.22836408,0.176206374,0.199160394,0.342085037,0.580735634,0.812657318,0.911472179,0.81180092,0.558667872,0.279060442,0.096774479,0.057224294,0.116173238,0.190617768,0.223176134,0.210614003,0.185233462,0.17659777,0.18894097,0.206958896,0.215586367,0.212165057,0.203214457,0.1944595,0.185733373,0.173293668,0.154071191,0.127317598,0.094515854,0.059995263,0.03153761,0.01833332,0.026376585,0.055025567,0.097804636,0.146265822,0.19323,0.233660137,0.264548243,0.285348192,0.298228915,0.306686314,0.313144014,0.317927036,0.320537386,0.321290151,0.321142455,0.320435617,0.319178663,0.319338649,0.325907051,0.34359388,0.370937003,0.3980592,0.412304014,0.4081965,0.392206299,0.375868603,0.362026942,0.338503406,0.290425885,0.225408712,0.187899564,0.239720517,0.410294042,0.653638972,0.856046782,0.902353869,0.755967013,0.488403208,0.231856144,0.091626277,0.086296728,0.155909816,0.220893812,0.239008072,0.219800849,0.197572161,0.19536239,0.210561856,0.226449866,0.231230688,0.225687359,0.216890519,0.2088436,0.199742252,0.185535126,0.163716142,0.134215516,0.099236155,0.06396486,0.036697946,0.026122981,0.03683361,0.066883641,0.109381741,0.156108791,0.199985423,0.235781322,0.260666637,0.275144331,0.282785717,0.287763057,0.292002338,0.294764968,0.294809627,0.29232017,0.288504504,0.284209811,0.280268275,0.279467339,0.286730288,0.305229277,0.331304356,0.354227067,0.36324459,0.356489685,0.342419237,0.330148112,0.316848196,0.28702611,0.230620144,0.167514629,0.152162094,0.241554348,0.442213865,0.680549314,0.833108158,0.805736054,0.602873709,0.328722275,0.116438429,0.041387533,0.084668191,0.167075783,0.216495431,0.212802739,0.183019306,0.163786501,0.169227421,0.187695198,0.200687979,0.200663261,0.192733982,0.184471549,0.177471728,0.167818429,0.151415898,0.127189339,0.096656101,0.063096355,0.032017326,0.010856789,0.006109107,0.019785911,0.04867162,0.08684669,0.128518575,0.168792629,0.203324855,0.228995492,0.245433927,0.255147301,0.261396436,0.265899343,0.268700987,0.269721995,0.269587374,0.268984486,0.268422027,0.269677968,0.276868746,0.293971588,0.319601245,0.344736222,0.357994894,0.355179898,0.343187554,0.331955052,0.320869698,0.295525121,0.244331777,0.183982994,0.166642658,0.250113439,0.445045143,0.683084656,0.843524191,0.82981548,0.63958073,0.370070002,0.152286701,0.06578748,0.09895117,0.177620093,0.229538488,0.230694749,0.204329183,0.186010366,0.191114903,0.209542946,0.223310338,0.224594395,0.21823298,0.211779076,0.206787801,0.199154574,0.18466643,0.162320574,0.133670797,0.101818052,0.072128545,0.05232076,0.049445891,0.065640189,0.096930831,0.136268033,0.177424765,0.216257846,0.249729939,0.275525036,0.293154189,0.304511798,0.312330433,0.318058439,0.321688343,0.323380647,0.324204765,0.324767668,0.324051992,0.321189707,0.318865808,0.32361038,0.34058043,0.366910168,0.391000687,0.400458335,0.392429907,0.375886201,0.361596781,0.348105171,0.319433738,0.262884171,0.195521158,0.172220176,0.255611601,0.460634531,0.71835008,0.900279334,0.898095891,0.70117082,0.408099087,0.160133017,0.049000385,0.06970332,0.146753106,0.201858806,0.205393265,0.17843483,0.157658397,0.160752092,0.179033676,0.194063366,0.196181338,0.188533072,0.178515775,0.169144913,0.158092537,0.141806626,0.118589461,0.088922994,0.055494506,0.024059769,0.003010204,0,0.017770867,0.052927456,0.098449635,0.147058458,0.192741401,0.230874541,0.258822448,0.276997884,0.288486293,0.29666092,0.302983307,0.30725407,0.309516067,0.310771434,0.311629265,0.311358373,0.309709309,0.309872627,0.318156534,0.338701489,0.367534669,0.392709864,0.402433658,0.394805175,0.379325174,0.366533222,0.354206882,0.32565139,0.268204918,0.200160667,0.178391115,0.266801642,0.479262071,0.743343466,0.926847543,0.920494454,0.716616031,0.418709581,0.171304925,0.065587847,0.093025785,0.174454031,0.230191046,0.231834147,0.202777294,0.181261264,0.18501783,0.20444421,0.220323539,0.223014481,0.216253923,0.207882338,0.200715566,0.191731553,0.176779875,0.154124283,0.124713226,0.091743408,0.061112781,0.040980238,0.038723701,0.057063881,0.092811755,0.139084492,0.188439781,0.234492148,0.272359159,0.299476608,0.316551808,0.326916069,0.334029984,0.339429075,0.343127259,0.345423041,0.347341288,0.349147591,0.349599059,0.348138208,0.34805854,0.356039913,0.376509342,0.405462083,0.430700291,0.440254143,0.432245328,0.416176427,0.402327604,0.388220189,0.35766687,0.299657221,0.234295266,0.218326826,0.312265317,0.524756376,0.780282068,0.949136123,0.929558211,0.721504054,0.430617573,0.196559479,0.102449138,0.134339876,0.213372539,0.264199264,0.262528377,0.232703869,0.211123173,0.213357321,0.229216127,0.240288975,0.237711252,0.225146105,0.210069672,0.195647228,0.180018642,0.160047154,0.133969715,0.101857221,0.066193549,0.033018478,0.011134169,0.008098836,0.025791468,0.059559707,0.101457419,0.144197314,0.182752665,0.21394547,0.23617098,0.24985944,0.257346132,0.261453903,0.26404603,0.265905625,0.267378785,0.268356314,0.267868977,0.265140641,0.262263195,0.265270951,0.280346825,0.306979373,0.334991472,0.350538688,0.347338241,0.332181186,0.317263281,0.305068811,0.282170904,0.233525031,0.168959732,0.135535485,0.193853788,0.366583439,0.599840149,0.778761849,0.797766665,0.635572973,0.373859617,0.142151182,0.032283717,0.048279114,0.123689427,0.182554693,0.191310162,0.166378598,0.143629802,0.143592201,0.160645533,0.177148677,0.182434908,0.178657654,0.172991992,0.168360834,0.161926759,0.149640459,0.129928137,0.103754618,0.07380801,0.045124134,0.025390594,0.0223485,0.039488276,0.074083406,0.119372621,0.168322311,0.21551396,0.256908628,0.289766791,0.313647939,0.330765655,0.344256169,0.355793642,0.365149166,0.371835063,0.376299379,0.379139749,0.380144571,0.379644512,0.381089175,0.390609413,0.411701331,0.439447003,0.461393916,0.466669813,0.455637056,0.43946714,0.42757209,0.414384797,0.381860363,0.321994205,0.261893481,0.262776827,0.380143143,0.608477256,0.858709527,1,0.944809244,0.713035726,0.421605793,0.20573128,0.133641116,0.177998942,0.256557597,0.300115582,0.293010694,0.263769755,0.246749808,0.252647146,0.268245798,0.27599715,0.270237804,0.257142255,0.244240148,0.232792699,0.218801652,0.198100152,0.169261619,0.133557021,0.094820594,0.059953283,0.037755483,0.035070214,0.053015405,0.086770453,0.128779908,0.172053952,0.211303897,0.242860947,0.265127488,0.279176513,0.287843089,0.293466667,0.296649846,0.297403491,0.296849409,0.296765503,0.297336638,0.296544753,0.293145212,0.29034182,0.295113374,0.31211895,0.33746849,0.359278618,0.366193978,0.35687115,0.340822303,0.327784783,0.314489876,0.283951445,0.224531512,0.156395659,0.137782447,0.232059684,0.450343981,0.716636173,0.896800921,0.882916705,0.671251136,0.369040232,0.121783863,0.018672469,0.048365035,0.130433204,0.185973344,0.188002616,0.160414167,0.140819672,0.146173819,0.166762828,0.183702373,0.187361339,0.180934563,0.171782781,0.162987345,0.152422759,0.136647999,0.113854019,0.08442458,0.051305124,0.020811744,0.00164911,0.001007388,0.020483035,0.05562029,0.099261609,0.145133499,0.18877574,0.226664235,0.256094692,0.276306599,0.288942547,0.296708247,0.301650115,0.304913432,0.307557364,0.310484507,0.313241951,0.313972371,0.312053322,0.311111602,0.318048623,0.337072305,0.363712877,0.38564653,0.391598706,0.381102071,0.36497578,0.353645221,0.343117313,0.314853076,0.256596813,0.189954846,0.17546806,0.276799839,0.501727978,0.769196114,0.942629784,0.917087109,0.695570216,0.390878225,0.14897144,0.054652207,0.091104503,0.175159541,0.228930292,0.228326901,0.199333693,0.17957895,0.18472122,0.204136679,0.219401543,0.222222548,0.216696847,0.209831073,0.20344796,0.194299099,0.178679723,0.15527263,0.125094814,0.091375802,0.060327859,0.040442364,0.038855546,0.057286199,0.091319223,0.133449018,0.176676515,0.215948365,0.247966022,0.27124362,0.286514065,0.296046093,0.301764001,0.304169113,0.303419495,0.300979287,0.29918537,0.298865945,0.298314509,0.295887883,0.293834396,0.298359882,0.314279468,0.338836447,0.361450376,0.371130552,0.365424141,0.351879892,0.338997091,0.3243914,0.293779615,0.23748881,0.173715747,0.154135418,0.234813885,0.425298656,0.657605544,0.812188772,0.793559579,0.600132427,0.329750204,0.113389258,0.029484154,0.064652847,0.143618736,0.194418387,0.194130148,0.166669127,0.147480102,0.151699635,0.169482883,0.183268999,0.185121463,0.179247567,0.172838813,0.167816509,0.160617472,0.14689373,0.124820529,0.095304789,0.061613227,0.029761538,0.007850048,0.002889379,0.017099007,0.04707571,0.086396466,0.128810663,0.169452848,0.204571028,0.231733627,0.250754103,0.263673404,0.273076588,0.280367778,0.285819378,0.289802086,0.293083941,0.295817442,0.297359105,0.298348085,0.302790719,0.316277908,0.340205082,0.367508142,0.385874137,0.387418736,0.375805325,0.362074115,0.351106288,0.33255484,0.290006098,0.225919928,0.17975457,0.213746191,0.365200801,0.599491281,0.809734195,0.877303506,0.753624073,0.498151828,0.239272726,0.088268854,0.073592262,0.141256584,0.210461174,0.233444069,0.21543485,0.190683031,0.185171371,0.198849362,0.215215818,0.221134592,0.216389484,0.208219201,0.201290405,0.194059934,0.182271064,0.163203523,0.136673019,0.104520321,0.071200067,0.044349616,0.032563712,0.040849857,0.067763821,0.106924907,0.151016117,0.194389363,0.233080745,0.264305026,0.287073181,0.302796865,0.314097258,0.322574762,0.328144725,0.330715281,0.331734809,0.333141602,0.334896012,0.334789193,0.331855941,0.329862519,0.33604042,0.354716615,0.381399932,0.403799638,0.410492538,0.400321897,0.38322508,0.369555438,0.356489784,0.326867463,0.268451087,0.2013643,0.18504611,0.284411242,0.510356701,0.78373141,0.965888903,0.946465629,0.723614232,0.409646356,0.154726053,0.049346999,0.080070604,0.163316393,0.218370435,0.218438735,0.18861823,0.167416587,0.171784902,0.19137345,0.206687281,0.208053242,0.199297864,0.188696607,0.179846333,0.170287876,0.155601827,0.133087098,0.102922231,0.068476115,0.036576269,0.016155818,0.014525847,0.033623736,0.069471526,0.11495815,0.163013838,0.207841861,0.24492749,0.271680555,0.288580893,0.298914555,0.306413609,0.312874038,0.318038492,0.32135832,0.323079231,0.323487449,0.322124587,0.319082967,0.317421135,0.323068501,0.340432394,0.366857361,0.391810826,0.403367892,0.397514672,0.381515701,0.366331171,0.35336274,0.329341414,0.279802545,0.214686372,0.181702697,0.244288658,0.429147496,0.68322489,0.885484821,0.918913311,0.752908155,0.469059344,0.2065783,0.07020974,0.072053708,0.145500498,0.208800653,0.222183222,0.199020417,0.175641493,0.174652312,0.191922504,0.209605511,0.215588464,0.210823025,0.202677679,0.195401679,0.187226839,0.17383811,0.152441953,0.123142611,0.088890478,0.055554694,0.031238193,0.02345846,0.035509206,0.06504381,0.105959904,0.151440465,0.195631387,0.233914793,0.263369584,0.2836971,0.297118744,0.306500448,0.313305005,0.317594716,0.319710271,0.321054228,0.322698429,0.323858912,0.323095125,0.321747778,0.325389902,0.34020473,0.366443464,0.395400352,0.41418774,0.415401412,0.402910004,0.387031646,0.371978843,0.348202145,0.301518292,0.23648169,0.192900328,0.231354322,0.386654545,0.622287468,0.830986255,0.895222093,0.768156872,0.510358134,0.249891751,0.096670572,0.07809676,0.140598617,0.204947963,0.2245597,0.204298322,0.176983295,0.167828709,0.177655788,0.191664838,0.197514269,0.194051533,0.186733477,0.17905465,0.169573417,0.155060027,0.134097948,0.107744963,0.078496773,0.050129039,0.027990253,0.017861807,0.023396816,0.044407833,0.077331732,0.116988682,0.157707386,0.193900997,0.221305697,0.23878628,0.248691324,0.254827068,0.259576587,0.263115843,0.26494793
0.18579755,0.192197798,0.195500224,0.194165862,0.187508869,0.175102324,0.156220262,0.1302523,0.098237259,0.064406184,0.036120941,0.021559201,0.026249577,0.050562375,0.089630985,0.135540483,0.180371207,0.218594299,0.248027979,0.269338781,0.284604951,0.295794021,0.304007569,0.309758481,0.313637719,0.316397553,0.31828902,0.318704437,0.317257521,0.315826397,0.319260643,0.332732009,0.356715455,0.383928617,0.402454004,0.404281503,0.392170939,0.376782326,0.364097511,0.344956243,0.301654016,0.232924273,0.176442419,0.199651898,0.351432961,0.606739997,0.856157399,0.964136293,0.860338685,0.592517247,0.295814013,0.101877532,0.059181903,0.121291241,0.200516298,0.235672435,0.222484176,0.194775403,0.184525182,0.197397824,0.217726169,0.228999322,0.227421988,0.219383473,0.21098779,0.20211499,0.188667397,0.167536872,0.138716987,0.104681649,0.069985267,0.041528722,0.027280554,0.032787595,0.058162343,0.098372868,0.146231165,0.195030272,0.239249586,0.2746156,0.299024525,0.313534519,0.321589721,0.326599049,0.330173929,0.332519576,0.333744894,0.334077198,0.333225976,0.331004365,0.32960676,0.334548027,0.351204547,0.378627935,0.406916792,0.422748411,0.419764784,0.403939508,0.386795751,0.371086778,0.344029503,0.290264832,0.218554852,0.176928931,0.231702303,0.414195784,0.674900286,0.891916693,0.941897242,0.785510667,0.498990427,0.223609892,0.072254776,0.065307759,0.138898979,0.20758609,0.225544116,0.202768849,0.176613972,0.172907864,0.189651574,0.208738885,0.216517646,0.212737014,0.20444186,0.196052816,0.186152532,0.171014608,0.148514716,0.118957303,0.084722374,0.050912658,0.025590267,0.017183928,0.030067258,0.062214341,0.106968338,0.156701499,0.20496797,0.24665137,0.278169982,0.298672017,0.310548323,0.317713837,0.322950907,0.327013213,0.32995537,0.332337031,0.334589033,0.336067658,0.336339728,0.337996458,0.34688816,0.367360806,0.396083062,0.421524377,0.431858189,0.425090314,0.410801303,0.399325069,0.387448708,0.357279444,0.296342363,0.225455137,0.205065508,0.300657679,0.523459817,0.795157583,0.978321016,0.962911713,0.745579233,0.436136386,0.183215856,0.077758712,0.107782169,0.19048335,0.244783589,0.243404436,0.211764997,0.189095381,0.192421232,0.210704094,0.224052355,0.223470054,0.213881325,0.203678269,0.19519964,0.184513427,0.166936412,0.140887944,0.108014371,0.072539482,0.041454547,0.023481835,0.025251917,0.047264257,0.083707182,0.126452012,0.169211264,0.208418752,0.241717031,0.267223331,0.284518733,0.295310489,0.30219939,0.306840691,0.309633488,0.310783576,0.31077439,0.309756641,0.307758226,0.306737049,0.311872652,0.328508702,0.355796398,0.383675591,0.398630097,0.394739034,0.378875912,0.36252461,0.346686031,0.317161846,0.261221902,0.194734472,0.170992239,0.250581457,0.446157613,0.688119619,0.851354088,0.83488817,0.63557374,0.354447497,0.128069979,0.039231963,0.075233851,0.158009196,0.211902759,0.21233061,0.184434567,0.16585802,0.172184507,0.191578608,0.204094806,0.201518173,0.190156299,0.17962268,0.172581014,0.164543908,0.150051665,0.127000282,0.096594861,0.062358693,0.030515622,0.009636097,0.007247807,0.025471238,0.060027486,0.103564872,0.149603193,0.193555562,0.231599932,0.260574452,0.279650453,0.291214517,0.299033008,0.305384397,0.31025228,0.312947174,0.313593962,0.312849518,0.311371567,0.31096664,0.316000119,0.33149623,0.357645284,0.386125162,0.404089622,0.404235342,0.391207928,0.375924389,0.361514341,0.336257027,0.286102805,0.220419441,0.18551391,0.242836415,0.417885104,0.659363625,0.851492964,0.883176901,0.72595148,0.457829766,0.211353973,0.086279892,0.093998408,0.170160681,0.235215631,0.249941228,0.227278533,0.20334317,0.201015713,0.216519235,0.232344027,0.236952652,0.231918477,0.224594275,0.218344649,0.210430703,0.196474928,0.174442572,0.144935757,0.110452937,0.076123421,0.050146573,0.041072399,0.053040057,0.083409339,0.125036549,0.170526979,0.214439628,0.252851987,0.282866981,0.303538538,0.316599679,0.325119664,0.331124602,0.334872016,0.33629043,0.33616177,0.335273092,0.333211304,0.329615342,0.3272526,0.332515803,0.350524363,0.378374163,0.404052356,0.414387801,0.406013391,0.388219231,0.37260031,0.357949201,0.327380447,0.267151527,0.195239686,0.170421912,0.260341106,0.481875997,0.761700767,0.961655749,0.963990159,0.755239049,0.439964158,0.170392603,0.047249377,0.067545853,0.151070986,0.212648538,0.218518348,0.190100877,0.16695766,0.169070657,0.187930733,0.203962313,0.206686385,0.199367472,0.189808781,0.180929267,0.169820653,0.152463344,0.127171801,0.094783538,0.058459905,0.02457101,0.002305775,0,0.020450875,0.059517804,0.109071095,0.161023867,0.209131929,0.248835157,0.277452013,0.295202636,0.305183745,0.311296019,0.31592298,0.319640288,0.322566434,0.325009057,0.326720839,0.32688041,0.32632879,0.32972329,0.343480758,0.369368601,0.399713186,0.420776593,0.423355198,0.410895491,0.395446749,0.383055067,0.363242432,0.317851627,0.247740525,0.193829096,0.224264831,0.384075738,0.64204746,0.885210517,0.980372227,0.864180623,0.591201491,0.298699713,0.114711838,0.081131225,0.146355173,0.222017801,0.250645373,0.233024348,0.20571387,0.199556354,0.216779424,0.238969469,0.249256282,0.245207095,0.234609794,0.224194157,0.214087393,0.200497645,0.180370353,0.153058412,0.120107392,0.085902199,0.058342396,0.046646727,0.05650895,0.086751873,0.130616312,0.17997099,0.228269154,0.270737904,0.303936064,0.32659379,0.340565113,0.349697411,0.357034671,0.363178885,0.367277713,0.368867422,0.36825276,0.365879755,0.362936097,0.363154655,0.372503003,0.394512172,0.424574731,0.450082446,0.458995519,0.450134893,0.434106714,0.421175617,0.406710888,0.371822942,0.305904052,0.234573855,0.222194044,0.332176938,0.566555957,0.836224598,1,0.955417153,0.713546164,0.39548551,0.150703076,0.061434079,0.104866223,0.19254098,0.244782281,0.239236897,0.204925506,0.181255998,0.183474981,0.199520882,0.210386169,0.208726858,0.200048034,0.19166757,0.184229221,0.172881958,0.153262024,0.124789146,0.090041918,0.053785086,0.023173831,0.006758814,0.010733064,0.035143083,0.074001817,0.11925126,0.164506653,0.205615273,0.239425344,0.263818797,0.279209643,0.288822837,0.296347488,0.303138587,0.30796624,0.309280595,0.307265566,0.303991999,0.302678217,0.307243296,0.321130556,0.344162315,0.369683508,0.386718433,0.387900979,0.376130041,0.361082109,0.346388604,0.321303194,0.271159065,0.202970111,0.161084411,0.207518074,0.370862755,0.603541458,0.792136503,0.825754351,0.674254947,0.412901749,0.17154383,0.04852621,0.055669698,0.130147352,0.193548819,0.20671035,0.18227247,0.156726892,0.15386665,0.170191776,0.18726645,0.192378141,0.187039236,0.179698592,0.174632774,0.168810517,0.156919117,0.136696855,0.109591194,0.078927048,0.04947613,0.028081876,0.022205196,0.036018609,0.067669399,0.110646234,0.15766675,0.203188936,0.243242431,0.274790677,0.296547915,0.310078197,0.318908333,0.325904584,0.331608303,0.335091193,0.335831494,0.334415946,0.332211738,0.331665001,0.336989139,0.352630421,0.378641909,0.407107271,0.425354705,0.42560911,0.41213039,0.396444421,0.38279606,0.359317285,0.309657308,0.240502871,0.198465306,0.249826736,0.426770101,0.681085062,0.89274959,0.94073459,0.787283622,0.508050567,0.241551938,0.097440705,0.094325974,0.168567897,0.236076733,0.25241038,0.228488356,0.202000125,0.198376687,0.214624273,0.231843387,0.236735279,0.230541964,0.221716994,0.214715347,0.206772667,0.192683711,0.169861909,0.139130693,0.103500263,0.068250313,0.041368506,0.031320597,0.042520597,0.072669266,0.114694219,0.161074962,0.206308709,0.246423469,0.278144023,0.299770997,0.312469313,0.319579116,0.324177939,0.327488379,0.329471037,0.330066211,0.329305961,0.32707203,0.324361978,0.325237466,0.335805475,0.358712551,0.387676891,0.409166449,0.412380125,0.398909315,0.380920184,0.366856939,0.348468482,0.306552096,0.237167082,0.176141154,0.191375486,0.334857066,0.58606602,0.838709627,0.956072669,0.862144646,0.598151935,0.296856322,0.093534099,0.043103841,0.103063977,0.184595325,0.222475804,0.209640798,0.180374501,0.168901257,0.182265333,0.204306277,0.21719877,0.216394816,0.208382545,0.199673214,0.190470144,0.176904029,0.15589397,0.126979428,0.091851348,0.054815675,0.023829754,0.008811329,0.016632818,0.046880975,0.092430194,0.143925252,0.193720906,0.236749239,0.269900321,0.292264567,0.305788754,0.314284181,0.320805822,0.32600061,0.329103702,0.329954973,0.329416742,0.328325273,0.327510237,0.329591868,0.339463242,0.360485726,0.388821065,0.412762496,0.420566312,0.410822606,0.394026058,0.380823073,0.367152473,0.334312259,0.271290174,0.202981638,0.193123404,0.304895312,0.54064563,0.812102076,0.979038989,0.939340807,0.703300982,0.390425251,0.148835193,0.060603193,0.103930303,0.191684659,0.244979179,0.241577763,0.210379022,0.190744389,0.197773104,0.218821242,0.233921208,0.234911151,0.227136495,0.218483086,0.21052493,0.199208495,0.180444822,0.153238576,0.119257139,0.082471259,0.050081946,0.031745343,0.035198253,0.061408653,0.104067792,0.153887497,0.20329485,0.247718267,0.284310658,0.311339292,0.329083009,0.340070542,0.347307911,0.35224013,0.35483011,0.355273967,0.354752084,0.354386716,0.354626986,0.356801267,0.364753808,0.382799844,0.410246366,0.438293747,0.454697864,0.453665458,0.441005873,0.427121769,0.412948528,0.384647929,0.328481899,0.257495232,0.223252364,0.290229158,0.481522219,0.738298587,0.936437121,0.961243561,0.787867119,0.502448816,0.244420609,0.114965978,0.121827452,0.196024279,0.256389944,0.265774271,0.240193882,0.21664075,0.215836397,0.230735461,0.242069418,0.23909954,0.225769088,0.211620391,0.200938494,0.190591966,0.175067903,0.151148123,0.118840759,0.081058654,0.044258939,0.018156637,0.012002549,0.029225774,0.065318058,0.111028666,0.157617336,0.199549172,0.233857014,0.25896809,0.27495774,0.284060051,0.289610717,0.294014758,0.297904003,0.301032676,0.303245014,0.304416927,0.30458968,0.305514978,0.311825405,0.328519952,0.35516348,0.38268518,0.398346434,0.396196781,0.382384046,0.367554498,0.35232991,0.322850233,0.267265884,0.202212204,0.180762329,0.262019577,0.456851402,0.695283045,0.854107696,0.835370708,0.637597415,0.360703918,0.138387999,0.051426443,0.087508402,0.170418663,0.225524344,0.227282836,0.199060558,0.17808184,0.181719729,0.200739609,0.216278899,0.218623004,0.211093793,0.201062123,0.191145779,0.178732239,0.160627287,0.135931026,0.105577067,0.072014253,0.040645746,0.020043654,0.018230967,0.037476181,0.0728317,0.115894158,0.159741916,0.200483711,0.23567955,0.263222973,0.28241305,0.295091133,0.304462756,0.312554615,0.319171584,0.323187188,0.324160742,0.322665425,0.320253015,0.32026186,0.327957655,0.347346702,0.37571283,0.401852444,0.412704975,0.404360229,0.386163581,0.370821092,0.358224768,0.331382656,0.27543649,0.207052176,0.183353953,0.269198243,0.478479385,0.738159789,0.91651999,0.906494577,0.702717815,0.408937281,0.167655746,0.06754915,0.09876411,0.182052716,0.237996089,0.238462896,0.207565164,0.184748639,0.188603533,0.20926201,0.22644286,0.22968286,0.222666806,0.213481031,0.204913698,0.193790337,0.176161241,0.150822128,0.119026214,0.08385115,0.051210871,0.029860804,0.027806344,0.047306461,0.08344634,0.127722566,0.172763253,0.213943323,0.248231235,0.273509472,0.289685945,0.299365285,0.306118662,0.311861011,0.316267586,0.31855602,0.318960029,0.318149447,0.316374629,0.314677062,0.316987731,0.329010053,0.352609572,0.380817252,0.400290242,0.401492237,0.387445561,0.37061123,0.358224117,0.340520745,0.298207003,0.229285891,0.172196977,0.195646087,0.34904092,0.606813036,0.858445053,0.967134451,0.861604175,0.589636193,0.287884687,0.090268478,0.046624535,0.109799638,0.190045932,0.224760018,0.210040837,0.181046104,0.170441267,0.183434039,0.203806538,0.215349368,0.215095116,0.209563889,0.203858152,0.196590377,0.183174042,0.160934996,0.130509976,0.094842482,0.059118214,0.031368239,0.020615646,0.032297827,0.064950173,0.111369356,0.16293667,0.21279185,0.256134745,0.289628524,0.31198657,0.32497727,0.332544083,0.338112874,0.342883009,0.346527141,0.348803027,0.349763962,0.34896451,0.346174022,0.343884333,0.348229369,0.365069868,0.393409592,0.422869856,0.439774559,0.437794197,0.423071788,0.406985364,0.391881256,0.364751908,0.310560322,0.238730891,0.197612397,0.253186964,0.436054036,0.696194239,0.911684439,0.959598818,0.801125779,0.512992146,0.236748363,0.085207445,0.078367617,0.151941436,0.220430053,0.238343355,0.215953255,0.190368804,0.186703057
0.201700554,0.19998777,0.199361389,0.199216375,0.199286576,0.199466708,0.199549549,0.199068316,0.197308928,0.193378693,0.186171531,0.174268302,0.156109228,0.13079815,0.099419734,0.066070897,0.03759571,0.02164958,0.023830002,0.045346446,0.082486657,0.128131406,0.174462382,0.215466932,0.248127962,0.272072681,0.288370965,0.298510148,0.304091817,0.306924145,0.308762249,0.310474207,0.311422837,0.310209466,0.306876947,0.304839661,0.310030242,0.326515606,0.351420613,0.374204879,0.382927995,0.373627206,0.353935906,0.335182217,0.31849464,0.29012916,0.236832348,0.172308755,0.147483204,0.22276619,0.413658579,0.654622713,0.822859969,0.816220138,0.62752031,0.35327437,0.127603287,0.034308246,0.064521772,0.144375277,0.19990948,0.204599288,0.179785582,0.160861292,0.164730723,0.183157446,0.198732975,0.202581924,0.198077182,0.192286881,0.187385042,0.179972793,0.165828765,0.143460668,0.114145757,0.0811256,0.05001295,0.028770305,0.025016778,0.041876445,0.076095239,0.120129249,0.165971132,0.207542569,0.24109046,0.265182789,0.280984157,0.291655326,0.300252891,0.307785283,0.31350492,0.31694329,0.318958457,0.320456932,0.320895084,0.319430847,0.318107801,0.322843293,0.339275371,0.366215529,0.393479296,0.408042146,0.404416255,0.389439221,0.375008083,0.363709784,0.342217447,0.294398093,0.228216506,0.191155559,0.249259194,0.433471037,0.693545967,0.907077566,0.951596267,0.790371845,0.502500245,0.230048721,0.083675199,0.080147339,0.153492396,0.219173613,0.234063822,0.210073116,0.184273736,0.180849868,0.196627017,0.213675198,0.219262331,0.213795852,0.204465085,0.195751217,0.186457927,0.172917844,0.152528908,0.124753509,0.091368497,0.057522811,0.031836364,0.023330141,0.036575628,0.069157103,0.113533552,0.161147723,0.205300586,0.241829449,0.269064893,0.287933219,0.301259143,0.311684279,0.319824391,0.32477337,0.326432346,0.326655004,0.32749928,0.328745049,0.328318591,0.325989218,0.326242781,0.336057933,0.358293331,0.386623005,0.407850406,0.411296801,0.397742836,0.37879735,0.364746633,0.350851501,0.318157073,0.255596721,0.188239195,0.18092826,0.298720705,0.544486161,0.826901313,1,0.957482497,0.710749821,0.384971915,0.133855051,0.041045423,0.082593076,0.168811644,0.220272453,0.215696235,0.184599572,0.165966141,0.1743269,0.196907708,0.213616651,0.215651894,0.207700416,0.19794494,0.189215274,0.178491284,0.161551551,0.136525194,0.104551543,0.069662393,0.038894906,0.021014899,0.022938895,0.04611689,0.08601886,0.134922775,0.185185841,0.230739003,0.267336122,0.293088969,0.309091647,0.318623935,0.324857344,0.329182679,0.331818711,0.333500008,0.335636892,0.338554204,0.340481141,0.339616563,0.337743218,0.341057191,0.355885676,0.382213619,0.411102271,0.429602238,0.430248012,0.417064861,0.401309505,0.38868399,0.36983814,0.327592322,0.261262531,0.208014748,0.2334875,0.384572999,0.635517428,0.878149361,0.979647967,0.872626322,0.606521289,0.315833075,0.12934076,0.091950618,0.155106079,0.231606578,0.262561298,0.245771521,0.215543914,0.20309395,0.21337278,0.230703772,0.238767333,0.233514744,0.220915852,0.207384049,0.194106701,0.17841046,0.157578233,0.130736574,0.099051435,0.066235889,0.039009506,0.025445779,0.031175133,0.056352013,0.095915654,0.142392597,0.188532906,0.22850279,0.258568605,0.278035745,0.289417263,0.296655189,0.302424716,0.307059342,0.309964809,0.311419299,0.312340352,0.312564822,0.310602813,0.306251638,0.303448118,0.30922809,0.328082917,0.356234228,0.381854031,0.392728318,0.385693841,0.368904795,0.352941239,0.337607876,0.308814417,0.254462527,0.189819793,0.166375978,0.24381368,0.436333838,0.677200268,0.842756445,0.830691557,0.634987911,0.354634377,0.126143229,0.033745393,0.06655696,0.147852828,0.202242249,0.204060899,0.17671462,0.157082836,0.1620255,0.181991864,0.197853818,0.199490583,0.190226586,0.17863368,0.169447136,0.16141179,0.150444085,0.132855465,0.106824732,0.073702171,0.039465673,0.013953453,0.006515252,0.020798613,0.053086077,0.095354628,0.13982922,0.181305254,0.216827267,0.244890908,0.265452134,0.279880529,0.289955358,0.296790339,0.301070851,0.304125362,0.307837912,0.312823655,0.317121841,0.317961244,0.315797177,0.316412032,0.327692908,0.352635779,0.38453278,0.409636306,0.416683763,0.405958175,0.38900538,0.376847857,0.366099343,0.338750354,0.282866824,0.220155363,0.210681639,0.3161759,0.540794346,0.80015885,0.958258379,0.91636226,0.686316343,0.386061244,0.158753359,0.080427367,0.126162423,0.210767296,0.26029754,0.256003437,0.226293879,0.207633636,0.213260141,0.231246625,0.243509245,0.242861142,0.234370397,0.225531732,0.218094337,0.20818366,0.191253512,0.165609185,0.132774228,0.096962258,0.064910292,0.044682179,0.042538038,0.059855712,0.092863701,0.135173096,0.180418067,0.22314183,0.258866773,0.284999941,0.302067727,0.313213083,0.321563568,0.327928278,0.331293197,0.331365121,0.329937378,0.329319533,0.329744021,0.329063361,0.325539329,0.321045001,0.321288245,0.332172469,0.354637293,0.381895197,0.402059573,0.405743695,0.393454135,0.375295561,0.360316888,0.343894646,0.308696128,0.246194533,0.183331471,0.183630853,0.306257913,0.546414839,0.810010683,0.958156842,0.898528294,0.653295211,0.346481635,0.119600967,0.042762638,0.08679367,0.166751446,0.211746357,0.205567792,0.176948778,0.1610355,0.169477542,0.18930212,0.20205379,0.200784097,0.191269141,0.181771376,0.174325476,0.164709685,0.147853125,0.121925467,0.08875262,0.052875286,0.021163296,0.001927177,0.002119421,0.023920411,0.063586276,0.113481143,0.165291867,0.212163137,0.249596488,0.276102619,0.293457073,0.305386733,0.314849771,0.322213642,0.326267329,0.326926728,0.326386767,0.327212467,0.329590628,0.331216748,0.330454607,0.329625779,0.334695859,0.350806671,0.376977679,0.404574567,0.421832103,0.422052795,0.408925931,0.39272545,0.378368369,0.356477698,0.31099775,0.243671914,0.194370543,0.229105188,0.390554873,0.645442424,0.880129186,0.96373472,0.838109371,0.562743657,0.27551085,0.099982408,0.072310221,0.13863871,0.212873128,0.241025869,0.224858603,0.199063852,0.192463652,0.207351088,0.227048254,0.236202524,0.232718279,0.224035897,0.216419578,0.209186656,0.197242102,0.176648577,0.14748233,0.11327377,0.079539811,0.052751195,0.039103803,0.042838788,0.065158002,0.10424453,0.155238966,0.209357129,0.25391188,0.275927916,0.268668138,0.236022994,0.190240992,0.144482425,0.106716041,0.079673154,0.064985835,0.065783367,0.084810676,0.120675454,0.166728578,0.213891782,0.254751298,0.285699703,0.306473721,0.318643666,0.324478927,0.326322423,0.326069782,0.324744295,0.322440905,0.318722596,0.313406099,0.307650359,0.304777779,0.309504551,0.324740502,0.347635008,0.368952139,0.378427495,0.372909506,0.359116296,0.345782769,0.331045525,0.299933361,0.241357706,0.173907761,0.152811784,0.238417357,0.440804604,0.686915103,0.849714686,0.829389115,0.626144051,0.343833214,0.119210676,0.033090619,0.070875282,0.15422212,0.208242552,0.208588235,0.17966409,0.158612202,0.161979264,0.17991508,0.193703382,0.194430386,0.186451656,0.177883903,0.171327027,0.163191544,0.148791683,0.126098241,0.095860989,0.061056945,0.027643123,0.004483265,0,0.017310365,0.052343425,0.096704716,0.142235127,0.183288764,0.21631154,0.239296387,0.252524923,0.259057538,0.26314967,0.267461463,0.271708184,0.273896361,0.272665341,0.268804659,0.265525461,0.267753571,0.279946802,0.302300029,0.327977147,0.345648177,0.347700302,0.337157974,0.324452242,0.314351907,0.296522484,0.25474352,0.192709226,0.152019854,0.195453689,0.356522402,0.59365814,0.795718879,0.847827775,0.711843311,0.456451208,0.210695228,0.077922642,0.076919871,0.149319403,0.21666605,0.236459818,0.217582934,0.194651171,0.191912643,0.207486055,0.224205881,0.229619522,0.224895378,0.218263301,0.214115841,0.209454916,0.198473008,0.177965995,0.148544494,0.11334904,0.077817395,0.050131841,0.039275329,0.050387177,0.081348132,0.124116773,0.169549335,0.211257012,0.246084672,0.272818028,0.291623358,0.304238528,0.313295967,0.320620642,0.326316241,0.329693962,0.33066426,0.329830927,0.327838631,0.325938296,0.32758722,0.337945417,0.359385148,0.386499737,0.40715978,0.411356297,0.400352006,0.385421068,0.374475002,0.359329091,0.320750808,0.253854977,0.19273936,0.204108636,0.340818065,0.585541684,0.835831824,0.956842289,0.870918075,0.615044966,0.317928467,0.113492693,0.058440681,0.113457789,0.191979354,0.228951913,0.216019838,0.186219743,0.173504541,0.185366637,0.205995464,0.217482351,0.21517268,0.205896718,0.196792192,0.188340125,0.176281086,0.156876234,0.129380284,0.095704953,0.060355406,0.030889941,0.016254917,0.022407843,0.048755984,0.088929193,0.134904238,0.180309061,0.220709645,0.252760578,0.274712121,0.287715329,0.295402311,0.301298957,0.306653002,0.310841814,0.313269251,0.314144378,0.313873123,0.313186758,0.314774129,0.323610823,0.34320035,0.370010053,0.39276267,0.400094556,0.390818029,0.375539602,0.364925664,0.354594047,0.324780867,0.262686669,0.191622917,0.175504546,0.280401978,0.513280154,0.789287958,0.967502536,0.940635011,0.712363029,0.398478101,0.148580882,0.049936141,0.085822134,0.171034913,0.225230802,0.223469769,0.193043184,0.173530055,0.18104094,0.2032747,0.219487421,0.220427682,0.211158003,0.200403336,0.191045358,0.179892348,0.162852799,0.138273816,0.106924487,0.071987506,0.040207034,0.021247156,0.023262915,0.047770667,0.08884728,0.137385804,0.18591776,0.229955911,0.266572755,0.293721401,0.311326087,0.321862622,0.328709382,0.333797441,0.337248766,0.338902932,0.339322161,0.339172084,0.338830116,0.339852029,0.346379736,0.36293088,0.388948923,0.415756076,0.43124616,0.429781524,0.417401541,0.404841067,0.393299066,0.368637685,0.315767831,0.245564819,0.207977232,0.268270761,0.453359887,0.709334889,0.914430429,0.951227543,0.788380791,0.506298316,0.243699894,0.106439319,0.108470556,0.18383197,0.249339623,0.263061364,0.23762759,0.210614858,0.206462233,0.221816179,0.238320454,0.242936631,0.23588195,0.223883713,0.210785753,0.195400443,0.175414137,0.150364833,0.121091863,0.088877618,0.056996891,0.032269818,0.023097409,0.034557976,0.065205277,0.108341297,0.155762999,0.200314149,0.236501653,0.261088066,0.274482649,0.280879713,0.285611756,0.291462709,0.29748344,0.301213603,0.301560205,0.299462056,0.296897808,0.296515537,0.302099025,0.317312838,0.341702577,0.367741286,0.384007472,0.383964182,0.372105428,0.359237965,0.349079002,0.330205217,0.286434088,0.221955944,0.177738201,0.214813698,0.366184646,0.59284218,0.788013609,0.83934372,0.707088085,0.455707036,0.211011831,0.076188886,0.071925671,0.14150809,0.206792075,0.224863378,0.204332438,0.179775804,0.175341685,0.188926737,0.203359123,0.206397199,0.199306247,0.190162293,0.183244743,0.175915018,0.1631429,0.142344695,0.114221894,0.0814556,0.048745049,0.023288217,0.012987592,0.022235474,0.049267273,0.087718968,0.130418673,0.171897174,0.208290511,0.236902731,0.256795314,0.269637794,0.278507192,0.285707595,0.291668905,0.296014872,0.298876899,0.30068474,0.301516846,0.30195927,0.305170411,0.316343059,0.337951618,0.364723151,0.384961058,0.389294329,0.379215062,0.36523767,0.354061861,0.33761597,0.298889859,0.23594631,0.182988043,0.201513135,0.335969791,0.563570429,0.785430519,0.879385438,0.782371228,0.538226245,0.269952689,0.097123959,0.063019164,0.123571055,0.197028381,0.227166513,0.211643951,0.183704605,0.173655569,0.185753541,0.204061082,0.212964977,0.210071425,0.202579246,0.19650906,0.191170101,0.181973759,0.165475638,0.140953353,0.109906368,0.076307517,0.047528319,0.032704497,0.038161604,0.063603388,0.102772563,0.147654473,0.191699257,0.230488295,0.261064327,0.282409563,0.296138334,0.305524529,0.313094343,0.318955764,0.32235538,0.323494927,0.323630192,0.323070903,0.320700512,0.316754394,0.315537107,0.324041291,0.345339871,0.373432568,0.395072544,0.399588246,0.38793327,0.371764698,0.360564068,0.348419694,0.315540291,0.251113091,0.181166508,0.171049732,0.285673277,0.527914704,0.807348398,0.979380799,0.938263442,0.694499278,0.371845224,0.123027566,0.031862146,0.074828364,0.162375247,0.214747923,0.210401021,0.179032723,0.15992304,0.167708564,0.1896108,0.205815667,0.207870988,0.200571851,0.191910707,0.184269828,0.174350561,0.157956567,0.133291847,0.101614093,0.06698799,0.036673826,0.019664607,0.02282792,0.047124159,0.087507044,0.13605616,0.185480507,0.230025523,0.265863516,0.291116999,0.307183848,0.317416824,0.324930841,0.330351505,0.333137511,0.333523041,0.333286344,0.333290823
0.063539829,0.047582955,0.047528455,0.068286897,0.105639308,0.149381404,0.189405812,0.220452803,0.242844091,0.259747048,0.273774717,0.285494157,0.294312094,0.300202419,0.304400909,0.308498032,0.312984407,0.316874003,0.319139146,0.32100025,0.326873483,0.342195201,0.368730311,0.400923979,0.427502665,0.438859782,0.434670065,0.423605991,0.412910983,0.397027019,0.360147034,0.297508055,0.238988376,0.246561705,0.373090258,0.607325787,0.854683003,0.983745364,0.913103072,0.67159887,0.381091866,0.174066977,0.111182166,0.159038177,0.234826203,0.273043646,0.261844444,0.230923224,0.213576025,0.219197288,0.23416707,0.241117622,0.234514064,0.220596824,0.207227251,0.196192046,0.183722609,0.165327094,0.139009546,0.105707411,0.069274386,0.036738434,0.016919638,0.016591099,0.036809234,0.072715329,0.116720453,0.161830275,0.202771588,0.235799572,0.25908664,0.273514786,0.282101182,0.287787017,0.291744025,0.293981031,0.295083887,0.296449261,0.298620557,0.300386155,0.300778515,0.302148591,0.310024317,0.328236731,0.353423353,0.375179375,0.383496642,0.377426213,0.365862129,0.357470101,0.348218397,0.321151826,0.265136605,0.200020507,0.181527733,0.268641012,0.469218699,0.709186523,0.862975688,0.834248505,0.626853235,0.346362503,0.128217834,0.049563082,0.092024019,0.175756503,0.227298599,0.22500268,0.19481822,0.173370401,0.175921321,0.192384336,0.205112418,0.206159189,0.19949646,0.19186694,0.184905411,0.175248298,0.159144583,0.135356083,0.105024897,0.071272833,0.039799991,0.018471979,0.014311004,0.029793858,0.061782412,0.103732236,0.1486765,0.190766579,0.225766809,0.25182935,0.27013491,0.283803234,0.295223224,0.304369854,0.309992939,0.312125188,0.312632935,0.313119014,0.313233764,0.312270034,0.312542795,0.319841666,0.338715384,0.366401961,0.392118634,0.404210382,0.399682578,0.386688981,0.375618372,0.365673537,0.341534743,0.289310545,0.222710651,0.193591358,0.26544134,0.458940206,0.71244444,0.900943308,0.912912341,0.730159778,0.444874508,0.197213169,0.08285414,0.10197008,0.181520519,0.241771507,0.24965527,0.223772367,0.20091777,0.200859711,0.217026441,0.231699551,0.234622715,0.228076119,0.219141819,0.211027883,0.201561516,0.186950664,0.16493804,0.135389608,0.100529088,0.065980531,0.040523656,0.032712819,0.046281732,0.078292098,0.121380534,0.167539887,0.210384233,0.245643557,0.271472869,0.288910122,0.301114471,0.310971135,0.319097689,0.324435624,0.326656059,0.327266719,0.32791201,0.328144102,0.326037503,0.321689808,0.319693616,0.326897986,0.346366952,0.372788893,0.394283253,0.400459591,0.390622268,0.374209733,0.360833288,0.34748661,0.317330456,0.258268778,0.190066417,0.171813549,0.268853677,0.493387137,0.767619031,0.95320882,0.938589016,0.719777334,0.407297754,0.151011347,0.042816851,0.071475207,0.154912338,0.212233615,0.215096488,0.187070761,0.166397292,0.171010557,0.191668688,0.20905832,0.2127476,0.205670217,0.195693591,0.186422738,0.175464005,0.158483046,0.133132549,0.100242833,0.063773842,0.030771611,0.010153267,0.009299839,0.030285653,0.068898211,0.117197176,0.16713105,0.212552784,0.249518179,0.276354595,0.29391425,0.304947564,0.312237944,0.317049687,0.319496106,0.320120108,0.320362043,0.321129107,0.32157546,0.320478777,0.319379237,0.323660883,0.33898582,0.365296527,0.39411214,0.412987607,0.414652566,0.402876574,0.388202169,0.375399023,0.354661011,0.309676981,0.241988931,0.190853548,0.221607075,0.37754563,0.62804662,0.862730324,0.951784144,0.834570881,0.566300393,0.282140727,0.106297261,0.077599724,0.144218878,0.22001442,0.249609571,0.233602979,0.206588865,0.198169526,0.211717852,0.231395933,0.241971355,0.240528648,0.233232378,0.225709757,0.217983363,0.20637056,0.187492094,0.160273408,0.126367167,0.090724618,0.061590237,0.048006538,0.055450594,0.083014924,0.12449185,0.171937659,0.21846347,0.25897141,0.290181935,0.31114506,0.32342157,0.329754551,0.332075104,0.331005642,0.327313051,0.323084155,0.320560292,0.319780621,0.318362699,0.314677711,0.311365155,0.314723193,0.329232938,0.351847318,0.372059629,0.379116397,0.370730908,0.354736421,0.340231818,0.325301735,0.29529184,0.239598896,0.176495163,0.159849099,0.248614046,0.452449582,0.698642685,0.860381088,0.837805413,0.631590865,0.346924271,0.121782826,0.036814563,0.075960807,0.15964834,0.213171738,0.213253144,0.184791719,0.16433156,0.167733062,0.185487906,0.199970073,0.202752619,0.197338913,0.19042886,0.183970749,0.174879758,0.159381548,0.135976098,0.105520876,0.070966244,0.038017827,0.014822781,0.009009007,0.023757847,0.056246294,0.099486887,0.145454469,0.187224105,0.220034737,0.242201327,0.255520779,0.263912598,0.27059425,0.276211162,0.279717863,0.280700533,0.280197727,0.279285724,0.277960791,0.276589978,0.278283367,0.288074812,0.307838134,0.331685916,0.348064384,0.34865381,0.335965168,0.320556246,0.30835511,0.290765985,0.251788415,0.191653396,0.146079552,0.175185842,0.318312239,0.546353807,0.757592413,0.834190921,0.723248306,0.478014858,0.223245198,0.07117741,0.054097394,0.121244785,0.192256256,0.217594342,0.200739233,0.175872803,0.170392231,0.185671796,0.205458657,0.21571741,0.215070457,0.210061942,0.205186715,0.198959431,0.187295154,0.167849437,0.140929623,0.108587973,0.07492468,0.046964848,0.033185349,0.039405472,0.06546398,0.105661951,0.152025646,0.197205563,0.235624693,0.26407105,0.282594776,0.294443251,0.303766464,0.31256604,0.319967083,0.32454158,0.326739263,0.328372038,0.330030386,0.330316148,0.328707966,0.328906631,0.337767742,0.359146684,0.388033157,0.411603,0.418114013,0.40661546,0.387787127,0.372818563,0.359256728,0.329706074,0.271481856,0.204518132,0.188331636,0.287765414,0.513239103,0.785101525,0.964922808,0.943555749,0.72068383,0.409279688,0.158645303,0.057399536,0.090506343,0.174091448,0.228413118,0.227935945,0.198243715,0.177294017,0.181138891,0.19917425,0.212693757,0.213291829,0.20551244,0.197167681,0.19050334,0.181740166,0.165961876,0.140923609,0.107760749,0.070734189,0.037182938,0.016136375,0.014657538,0.034222105,0.070356118,0.115652837,0.163083759,0.207178858,0.243820403,0.270625514,0.28791247,0.29842197,0.305222018,0.309796659,0.312346575,0.313482386,0.314640496,0.316450467,0.317541443,0.316331158,0.314561836,0.318225536,0.333325985,0.359385483,0.387050128,0.403467218,0.402018714,0.387723904,0.371783043,0.358356494,0.33656156,0.290314458,0.223569097,0.178614533,0.221093716,0.389723931,0.646246727,0.874939297,0.947663019,0.812170638,0.533124147,0.249664903,0.082363448,0.06245676,0.132491176,0.205991687,0.231233434,0.212545293,0.185480595,0.178020659,0.19158742,0.209912343,0.21882033,0.216575295,0.209511294,0.202424785,0.194298932,0.180921772,0.159122938,0.128649665,0.092307708,0.05611325,0.028796071,0.019018384,0.031182221,0.06314074,0.107790439,0.156859212,0.203681253,0.243833096,0.27497513,0.297017332,0.311909842,0.322185481,0.329229775,0.33316861,0.334419956,0.334647735,0.335494362,0.336632976,0.336217107,0.334218954,0.335081897,0.345671683,0.368938339,0.398827501,0.422265876,0.428288079,0.417113018,0.399988284,0.387443819,0.375441666,0.345337473,0.284991425,0.216974882,0.203835032,0.31103122,0.545692867,0.822687991,1,0.969891471,0.737683303,0.422048658,0.174040927,0.079471164,0.118753989,0.205153876,0.259092206,0.25708797,0.226711344,0.206732046,0.212963165,0.23413329,0.25079195,0.253689844,0.246454651,0.236318191,0.225849307,0.212635028,0.193510726,0.167208047,0.134268453,0.097082093,0.061185746,0.035348476,0.028320784,0.044053335,0.079368675,0.125759565,0.173349259,0.214192278,0.243954638,0.262419563,0.272794417,0.279451602,0.285093247,0.289636574,0.291858116,0.291781355,0.290862298,0.289847771,0.287495201,0.282683339,0.278044503,0.280364433,0.295599913,0.32228742,0.350044839,0.366035718,0.36473477,0.351999073,0.338244395,0.325653275,0.302583354,0.2554113,0.192349185,0.156754965,0.207797634,0.372024001,0.602371937,0.787631122,0.818877751,0.666971367,0.407649979,0.170738352,0.053344582,0.064895846,0.14070518,0.202769411,0.21413,0.189098525,0.163790262,0.160614285,0.175761232,0.191907957,0.197188556,0.192346661,0.184265687,0.176760558,0.167871029,0.15344413,0.131126459,0.101448861,0.067384848,0.034278057,0.009452068,0,0.009542891,0.036627494,0.075950789,0.12083371,0.164864713,0.202658099,0.230891583,0.249468673,0.261215114,0.269563135,0.276219711,0.281151622,0.284363767,0.2868573,0.289423941,0.291298358,0.291390095,0.291507911,0.297456014,0.315022165,0.343461201,0.373007987,0.390547339,0.389797599,0.376487999,0.361944923,0.349445166,0.327498498,0.281812225,0.220419974,0.188057121,0.246164281,0.422274656,0.667244784,0.865128143,0.902099548,0.746878267,0.477068617,0.227239053,0.099400506,0.105660045,0.181026177,0.245300895,0.259305383,0.236291627,0.212441737,0.210507798,0.226664885,0.243298198,0.248329991,0.242687014,0.233760509,0.225952483,0.217702547,0.204758488,0.183979914,0.15471437,0.119134662,0.082973638,0.055110576,0.044351615,0.054976027,0.08468166,0.126598379,0.172913191,0.217090928,0.254399736,0.28227186,0.301050188,0.313574116,0.32290706,0.330038117,0.334158423,0.335138071,0.334947556,0.335953488,0.337944287,0.338044881,0.334397921,0.330015469,0.332301236,0.347241813,0.37315722,0.399553484,0.41340984,0.408771114,0.391476013,0.373325187,0.358644913,0.336191513,0.289568248,0.223219801,0.180993221,0.229503177,0.405653255,0.666384786,0.891418235,0.95268179,0.803515356,0.515844335,0.232154389,0.070258141,0.055416112,0.125992758,0.195747286,0.216312901,0.195211321,0.168894982,0.164089423,0.180275996,0.199791363,0.208062363,0.203780453,0.194108611,0.184529609,0.174435841,0.159764659,0.137507462,0.107639928,0.072793389,0.038231199,0.011583415,0.001038807,0.011664604,0.04274413,0.08827275,0.13994814,0.189964349,0.232586583,0.264828681,0.286751454,0.300990351,0.310845683,0.318107299,0.322807098,0.324869955,0.325387815,0.326070486,0.327076572,0.326762438,0.324207033,0.322208916,0.327025374,0.343707212,0.370667302,0.398112697,0.413698663,0.411318451,0.396159579,0.37973968,0.366903452,0.347121069,0.303319759,0.236934245,0.188408323,0.224168239,0.386817293,0.642603534,0.877626227,0.96101512,0.835107763,0.559752401,0.272910444,0.097818523,0.07017765,0.135721465,0.208659479,0.235572409,0.218991922,0.193556576,0.187655778,0.203180905,0.223460636,0.233480289,0.230961725,0.222807668,0.214816504,0.206774815,0.194450994,0.174497518,0.146258511,0.112032781,0.07710202,0.049289236,0.036990012,0.0455807,0.074490188,0.118006562,0.168267123,0.217901047,0.260980681,0.29405861,0.316214397,0.32972828,0.338212999,0.344200509,0.348187106,0.349851861,0.349779857,0.349332989,0.348766565,0.346648332,0.342138813,0.337746739,0.339375068,0.352152831,0.375172837,0.399944614,0.414636623,0.412341346,0.396431098,0.377166646,0.360852426,0.340148801,0.299349672,0.23555144,0.179873359,0.191353671,0.316694935,0.53846419,0.762061771,0.864185945,0.776617014,0.537748634,0.268417949,0.089859695,0.048768263,0.10452744,0.177265913,0.210364241,0.199213508,0.17424522,0.164907171,0.176155168,0.193578056,0.20206803,0.198365311,0.189145983,0.181048249,0.174662643,0.165407249,0.14859704,0.122709476,0.089538497,0.054120313,0.023545847,0.006414692,0.008277574,0.030261418,0.067818762,0.114349458,0.162716468,0.206980041,0.242571548,0.267238095,0.281921699,0.290099375,0.295274424,0.299099121,0.301926998,0.303718999,0.304883056,0.304861126,0.302889091,0.299003,0.296900017,0.302951605,0.32078188,0.34661302,0.36925474,0.377617812,0.369820166,0.353871923,0.34038837,0.32866184,0.303568374,0.252528097,0.188998973,0.164092466,0.237749077,0.427752992,0.671340066,0.846963131,0.849717933,0.667715815,0.39423263,0.164434466,0.066028216,0.093795035,0.173954034,0.231408657,0.237033679,0.212239122,0.192784518,0.196399531,0.214833003,0.230077442,0.232775165,0.226862165,0.220104915,0.215362717,0.20896003,0.195929964,0.173844362,0.142736316,0.10629961,0.070804461,0.045247526,0.036945285,0.049213253,0.079409582,0.120445004,0.164288667,0.205086129,0.238772278,0.263353023,0.279928431,0.291884584,0.301377572,0.309282871,0.314118645,0.315358802,0.314972864,0.315313785,0.316377249,0.315729581,0.311699122,0.306287281,0.306303425,0.318239413,0.342063899,0.370535987,0.391340881,0.395561792,0.38339753,0.365861579,0.350726773,0.333356648,0.295563771,0.23312841,0.175768477,0.186532917,0.317931221,0.557533674,0.806745632,0.931549213,0.851948411
0.288607503,0.293569784,0.309064965,0.335786978,0.364228692,0.381273254,0.380666078,0.368408024,0.356563173,0.348909378,0.332459401,0.288584212,0.220844971,0.174783738,0.221098876,0.400968648,0.672901139,0.913796007,0.989369131,0.847079381,0.557045822,0.265201606,0.095559355,0.078110051,0.151689679,0.226900878,0.251623769,0.231829485,0.204982311,0.199668166,0.216242266,0.23662441,0.245462794,0.24117527,0.231114244,0.220948985,0.209896758,0.19371017,0.169466188,0.137365602,0.100248023,0.063415766,0.034647025,0.022323983,0.031637673,0.061806715,0.106763456,0.158340987,0.209056578,0.25319284,0.287235637,0.310561283,0.325436612,0.335255301,0.342114841,0.346173838,0.347363883,0.347083883,0.347455729,0.348958479,0.349749019,0.348317653,0.346977726,0.351920776,0.368536521,0.395590983,0.423813926,0.441327418,0.442366059,0.431655239,0.418887404,0.406399053,0.382433683,0.332018337,0.26233736,0.21950613,0.270550795,0.450653207,0.714094874,0.938788979,0.996789339,0.843411139,0.552964419,0.269167941,0.109193221,0.096421931,0.167491133,0.235751234,0.253795118,0.230564959,0.203228711,0.198123229,0.213802253,0.232093341,0.238726301,0.233145297,0.223085358,0.214197806,0.205600079,0.19275086,0.172021395,0.14271334,0.107158588,0.070879605,0.042317086,0.030356597,0.040181724,0.070570952,0.114844842,0.164297718,0.211267981,0.250531986,0.279743188,0.299531763,0.312656477,0.321909026,0.328261524,0.331174854,0.330721171,0.328840499,0.327967854,0.32870642,0.329821243,0.331113012,0.335693281,0.347986481,0.368408217,0.390245988,0.403258464,0.401932795,0.390409716,0.377578694,0.36526528,0.341949549,0.293338724,0.226029589,0.182412184,0.223451162,0.380537483,0.611707711,0.806779666,0.851672491,0.708603562,0.447189182,0.198126739,0.065516997,0.066536261,0.139782241,0.205033537,0.220778191,0.198305252,0.173560667,0.170151564,0.184850626,0.199956583,0.203372559,0.19661862,0.187895411,0.181681813,0.175544001,0.164270117,0.144677944,0.116959209,0.083995969,0.051142797,0.025955138,0.016007336,0.025406745,0.052950199,0.093436765,0.140350984,0.1874169,0.228979195,0.260928287,0.282401437,0.296195256,0.306509865,0.315820328,0.324007599,0.330244522,0.334795149,0.338307511,0.339941581,0.337775027,0.332232584,0.328785254,0.335570253,0.356423038,0.385360774,0.408743559,0.415013413,0.404213065,0.387687265,0.375837704,0.364100112,0.333469686,0.272429936,0.205143238,0.195304592,0.307227902,0.544323569,0.817545664,0.984357761,0.941490379,0.701325998,0.387311543,0.14956329,0.068107793,0.117023228,0.206813959,0.259602013,0.255623562,0.224895158,0.205893609,0.212445241,0.231753186,0.244633963,0.243590293,0.234170074,0.224511659,0.216704645,0.20686609,0.190193293,0.164541303,0.130965256,0.093623807,0.059991877,0.039469981,0.039396652,0.061048547,0.099181203,0.145346734,0.191766828,0.233036406,0.266064862,0.290035162,0.306529106,0.318503628,0.328076709,0.335221964,0.338966334,0.339674111,0.339429235,0.339810307,0.339853219,0.337219526,0.331936444,0.328702844,0.334589653,0.353266131,0.380447524,0.404920286,0.415505506,0.409295769,0.3939185,0.379691897,0.366600377,0.339687187,0.283948271,0.212013485,0.177842379,0.250969299,0.457901723,0.73627493,0.951407595,0.978060624,0.789318514,0.479667253,0.200924292,0.062099485,0.070639305,0.152060555,0.219588124,0.233217077,0.208847797,0.185043108,0.184811774,0.202977565,0.220506712,0.22500886,0.218150748,0.208230887,0.199740605,0.19027269,0.174703415,0.150097543,0.117191217,0.079679743,0.043767754,0.017712785,0.009622549,0.023839779,0.058654165,0.107264458,0.160906351,0.211653673,0.253834058,0.284726104,0.304922882,0.317588554,0.326272982,0.332793524,0.337166838,0.33942813,0.340888599,0.343068607,0.345638727,0.346362891,0.343954267,0.341146707,0.344313242,0.358916408,0.38413498,0.411426467,0.429230168,0.431105161,0.420674519,0.407550657,0.395624808,0.374663692,0.328206343,0.257977317,0.204325349,0.23475213,0.39457099,0.653015681,0.896548844,0.990755185,0.871956811,0.595897015,0.301318756,0.116641238,0.083254535,0.149447205,0.227438362,0.259761364,0.24560272,0.219279241,0.210890518,0.224258165,0.243426633,0.252767498,0.249388298,0.240088905,0.231126802,0.222472647,0.209853798,0.189565914,0.160887867,0.12595538,0.089521454,0.058997494,0.042957023,0.047606095,0.07361206,0.115910998,0.166295712,0.216394152,0.259488016,0.29158941,0.312306826,0.324638149,0.332791583,0.339234022,0.343606705,0.344480338,0.341799417,0.337179918,0.331981284,0.325915387,0.31834937,0.311085555,0.309227146,0.318260014,0.339135014,0.365444998,0.385832433,0.391099379,0.381195258,0.365433074,0.35315963,0.341379163,0.31314746,0.25540599,0.185837268,0.160974555,0.244553461,0.4497501,0.70319261,0.873436132,0.855266698,0.646904503,0.355209311,0.122246541,0.032205034,0.069992624,0.154430444,0.208316661,0.207063748,0.176444958,0.15517844,0.160467894,0.18180244,0.198847654,0.201128366,0.192627115,0.182571416,0.175145455,0.167334563,0.153574742,0.130616992,0.099079934,0.062980307,0.029108049,0.005777902,0,0.014332738,0.045977709,0.088740467,0.135741353,0.180789916,0.218759006,0.246477481,0.264023298,0.27455114,0.281909624,0.288061544,0.29283834,0.295813295,0.297574163,0.298803628,0.298911091,0.296961728,0.29462284,0.297397873,0.311192153,0.336193647,0.364035533,0.382420126,0.384519849,0.374647554,0.363282493,0.354145361,0.336196879,0.293215966,0.228560381,0.183076528,0.220451139,0.378346852,0.620154432,0.835079507,0.901358541,0.770991489,0.507852973,0.245326824,0.096471641,0.087407834,0.160243389,0.231951001,0.255295381,0.237350251,0.213551083,0.20974757,0.225135759,0.242713754,0.249319932,0.244965737,0.237188282,0.230920469,0.224632931,0.213635441,0.194530945,0.166763901,0.132417601,0.096493321,0.066971549,0.052579756,0.058740804,0.084913815,0.125464846,0.172703937,0.219326027,0.259473332,0.289633943,0.309759489,0.32305709,0.333432482,0.342426946,0.348761823,0.350991939,0.350151883,0.349221782,0.350020594,0.351261699,0.350276256,0.346819047,0.345015478,0.351151798,0.368669758,0.394129558,0.417639401,0.428602741,0.423472029,0.4088092,0.394587949,0.38139835,0.354995638,0.300248757,0.228691437,0.192943453,0.261960039,0.463116636,0.736299064,0.949424547,0.978536519,0.795493309,0.491489248,0.215066208,0.074175776,0.07792169,0.154607025,0.219186792,0.231460704,0.206143364,0.181101837,0.179633647,0.197121449,0.21451419,0.218828626,0.211255109,0.200228168,0.190812179,0.181119122,0.166230102,0.143130546,0.112220531,0.076566467,0.04160228,0.01508618,0.00522217,0.01692399,0.049097891,0.095329483,0.147067468,0.196527166,0.238008743,0.268493683,0.288229642,0.300395024,0.308972102,0.316107517,0.321455812,0.324076613,0.324494841,0.324393599,0.324470983,0.323511636,0.320428961,0.317341335,0.319951354,0.333751137,0.35867651,0.38689848,0.406605928,0.410020684,0.399518382,0.385316789,0.374240172,0.358968176,0.321773232,0.256961819,0.195362375,0.201778915,0.33209694,0.575472154,0.833556762,0.968842611,0.8958626,0.644669101,0.342723741,0.128321813,0.064387134,0.115828931,0.196645193,0.239237441,0.231543394,0.204124409,0.191188425,0.202575826,0.224526027,0.238950227,0.239239328,0.230720899,0.220964016,0.212063317,0.200716749,0.182724699,0.156289664,0.122681163,0.086174802,0.054069419,0.035294839,0.036889957,0.060479837,0.10165187,0.152490446,0.204836415,0.252154279,0.290188121,0.317470106,0.335465306,0.347327983,0.355623049,0.361084113,0.36366774,0.364417141,0.36548878,0.36799713,0.370382095,0.369904358,0.366408473,0.364522929,0.37139031,0.391024431,0.419726173,0.446771186,0.460932646,0.458580368,0.446356641,0.434147546,0.422629929,0.398215757,0.346351335,0.277628929,0.241842315,0.305265264,0.495807326,0.758115241,0.966382741,1,0.828907068,0.538820175,0.273198828,0.138087439,0.143703894,0.220466084,0.284702362,0.296447944,0.270052435,0.24298671,0.238324883,0.25140332,0.263333353,0.261612006,0.248296038,0.232910977,0.221369485,0.211749412,0.197901121,0.174908682,0.141826073,0.101986564,0.062595062,0.033339174,0.022955668,0.034981024,0.065989729,0.108012776,0.152991276,0.195582868,0.232926554,0.263140821,0.28483887,0.297981342,0.304663535,0.308708786,0.313886168,0.321347513,0.327540206,0.324712587,0.30544601,0.269295802,0.22610769,0.191675146,0.177720293,0.184081333,0.199764368,0.211841419,0.214352541,0.210222678,0.206040596,0.205543025,0.207225273,0.206549264,0.199344974,0.183478129,0.15877065,0.12675814,0.091005884,0.057222924,0.032370867,0.022859575,0.032564196,0.061334402,0.104524525,0.154093126,0.201366123,0.240320646,0.269336884,0.29024177,0.305640274,0.316882977,0.324209565,0.328240106,0.330690428,0.333363095,0.336498974,0.338465004,0.337559779,0.334697085,0.334525574,0.343262514,0.363830299,0.391632478,0.415286387,0.423769592,0.415249544,0.39891507,0.385289165,0.37222257,0.342839546,0.284778952,0.218337929,0.203098043,0.302617573,0.524566216,0.787312094,0.954327326,0.922662661,0.698600488,0.396942012,0.162355989,0.075837473,0.117057035,0.201851533,0.253676435,0.250580463,0.220160706,0.200696897,0.207512052,0.228742752,0.244430964,0.245631455,0.237435122,0.228757237,0.222577284,0.215020672,0.200588742,0.176518102,0.143619892,0.105830452,0.070262371,0.046121131,0.041170323,0.057691629,0.091544934,0.135113629,0.181105831,0.224088105,0.260210925,0.287299108,0.305774549,0.318445542,0.328268225,0.336029981,0.340674651,0.341930015,0.341781753,0.342722594,0.344738836,0.345082258,0.341743457,0.337252657,0.338415915,0.351313314,0.375332653,0.401649247,0.418151404,0.418128097,0.405465334,0.390430197,0.377267263,0.355509387,0.308256475,0.237633075,0.185471474,0.220546928,0.387141041,0.650735768,0.893729849,0.980726604,0.851490147,0.567235994,0.270043082,0.087407651,0.056817058,0.123195996,0.198197183,0.226423001,0.209441086,0.182586037,0.175285002,0.190069395,0.21021522,0.220092669,0.217138048,0.208398408,0.200075726,0.191962797,0.179560804,0.158970685,0.129529974,0.093777387,0.057210155,0.027851046,0.01433967,0.022335748,0.051728364,0.096894205,0.149611268,0.201966642,0.247727843,0.283140272,0.307537996,0.3232242,0.333858273,0.341787346,0.347113347,0.349282762,0.349053257,0.348514695,0.348790724,0.348780733,0.346815046,0.344150167,0.346039939,0.358427592,0.38224189,0.410345225,0.430740989,0.43508737,0.425074879,0.410459817,0.397461496,0.378602022,0.337304659,0.270848514,0.213209546,0.229407863,0.370523796,0.617789243,0.867394001,0.983792948,0.890796503,0.629146598,0.330827756,0.129944742,0.080105328,0.138657852,0.21821412,0.255239978,0.242825141,0.213653263,0.200725994,0.211379782,0.230956892,0.242533494,0.241182938,0.232516583,0.223140347,0.213877964,0.201150067,0.181460317,0.153747222,0.119557004,0.082771094,0.050185285,0.030376576,0.030374043,0.051952183,0.091093579,0.139933858,0.189658268,0.232766331,0.264217102,0.283386296,0.293558504,0.299928952,0.305651179,0.310726224,0.313445167,0.313441439,0.311926177,0.309978864,0.306914742,0.302205092,0.298170041,0.300649369,0.314834476,0.339374251,0.36527873,0.38080035,0.380253287,0.368300921,0.354813743,0.343166939,0.322525647,0.277666316,0.212126656,0.165364863,0.198787896,0.34872444,0.579907445,0.78511224,0.846554163,0.71818397,0.462454479,0.209488814,0.068164818,0.062729715,0.135517347,0.205043158,0.225743782,0.205410418,0.180198066,0.176478013,0.193517667,0.213490346,0.221699507,0.216685072,0.206345009,0.197276228,0.189476406,0.1782521,0.159449812,0.131266279,0.096245959,0.059803698,0.030753381,0.017427959,0.024287132,0.0495294,0.087575821,0.131211595,0.174921662,0.214276459,0.246251671,0.269542061,0.285495294,0.296134146,0.302783113,0.306112343,0.306782377,0.306701932,0.307385621,0.30865002,0.308831739,0.308194204,0.311593256,0.325177891,0.350580538,0.380203591,0.401173515,0.405192814,0.395082928,0.381978942,0.371125987,0.354111504,0.314379096,0.252807175,0.205304862,0.233880075,0.380136568,0.615373903,0.83530409,0.917294705,0.804159832,0.549668284,0.282233896,0.11935535,0.096291865,0.161998025,0.233217613,0.259042541,0.24165921,0.215631054,0.208842212,0.22265074,0.240558277,0.247707992,0.242128075,0.231318251,0.220983619,0.211628812,0.198820096,0.179268429,0.151189997,0.116289479,0.078522942,0.046388325,0.029771614,0.0346367,0.060532475,0.100990934,0.148214431,0.194005914,0.233589531,0.263992887,0.284784671,0.298143155,0.308815441,0.317959897,0.325063636,0.328412486
0.03637963,0.05755979,0.087423161,0.126885251,0.171099818,0.212458373,0.245165278,0.267887424,0.282959141,0.293562368,0.301584647,0.307585139,0.311993287,0.315671856,0.31914534,0.321714426,0.322170186,0.321161694,0.322976724,0.334018548,0.357734562,0.389603135,0.417436235,0.428930698,0.421441039,0.404464064,0.389712007,0.376093407,0.346486866,0.286880779,0.216075331,0.194866541,0.291810214,0.520787123,0.802173378,0.993283781,0.978828687,0.754403864,0.433604277,0.170621375,0.060064667,0.090276076,0.176396218,0.234711119,0.23609835,0.205579924,0.183371271,0.188005244,0.209205283,0.226425217,0.229177903,0.221310397,0.211220791,0.201938254,0.190179845,0.171687767,0.145310088,0.112977054,0.078395355,0.046988084,0.025827021,0.021462289,0.036643736,0.069012801,0.112773961,0.161138394,0.207420966,0.245503282,0.271443006,0.285610005,0.292542272,0.297491987,0.302575406,0.30632044,0.306683029,0.303778899,0.299430936,0.29496177,0.29081327,0.288748978,0.293250927,0.30878946,0.334436396,0.361478829,0.378044994,0.377985982,0.365758454,0.351093439,0.336797306,0.312299456,0.264175461,0.1996982,0.161429107,0.209526596,0.373363942,0.608366167,0.802721924,0.843242709,0.695550522,0.433153455,0.188475535,0.064039977,0.07341222,0.152080305,0.218969112,0.233835792,0.209932946,0.184591381,0.181957639,0.19887491,0.21741347,0.224705452,0.220924157,0.213034576,0.205344852,0.19651439,0.182763464,0.161457503,0.132115512,0.096572255,0.059918638,0.030579549,0.017361185,0.024790331,0.050758513,0.088500845,0.13065517,0.171768476,0.20828283,0.237836618,0.259363082,0.273371189,0.281350326,0.284790218,0.285053031,0.283907605,0.28321948,0.283531287,0.283607265,0.282677992,0.283526224,0.292072179,0.311923077,0.338476744,0.359610721,0.364516633,0.353210983,0.33632054,0.322989096,0.308046162,0.274473557,0.215331585,0.157825849,0.161431801,0.278221717,0.499405686,0.735671422,0.860737715,0.794902972,0.564531133,0.287064049,0.091594451,0.037647948,0.092219219,0.173238743,0.215816464,0.208622735,0.181683162,0.168307506,0.177877556,0.197257956,0.209972098,0.210801408,0.204856726,0.197895453,0.190270974,0.178652303,0.160340426,0.13482115,0.10312723,0.068271525,0.036708837,0.017539359,0.018232257,0.040233272,0.078534501,0.125123175,0.172611588,0.21549578,0.250046705,0.274777128,0.291108488,0.302387525,0.311302862,0.318270231,0.322535883,0.324333955,0.325092268,0.325512147,0.324675375,0.322387363,0.322395322,0.331664443,0.354386173,0.385703159,0.412236585,0.421097099,0.41045189,0.391214882,0.375890434,0.363315778,0.335930087,0.278914425,0.20940625,0.186194928,0.277563815,0.500489967,0.780371892,0.977299752,0.973444847,0.758011972,0.439369856,0.171613061,0.053839335,0.079433913,0.165540763,0.226933034,0.231535706,0.20230153,0.17924866,0.18217782,0.202428227,0.220290225,0.224819414,0.21860942,0.209202936,0.199987459,0.188806854,0.171960976,0.147454271,0.115604529,0.079272209,0.044731455,0.02104836,0.016421985,0.033769395,0.069429975,0.115822439,0.165106919,0.210991718,0.248948559,0.276669709,0.294873679,0.306748792,0.315547025,0.322484695,0.327150576,0.329574412,0.331009987,0.332398184,0.333014284,0.33203264,0.331803335,0.338349566,0.35666374,0.384328367,0.410308038,0.421993622,0.41542245,0.398812353,0.383952662,0.371636885,0.346442023,0.292006424,0.219241838,0.180725913,0.246366952,0.446091481,0.722927767,0.945547444,0.986212305,0.810311216,0.504945159,0.220496179,0.07107491,0.071040341,0.14929643,0.217570871,0.232288611,0.207226899,0.181427755,0.179683679,0.198093256,0.217582258,0.224683751,0.21970814,0.210119823,0.200644133,0.190046345,0.17437687,0.150824231,0.119107065,0.081855725,0.045325472,0.018856991,0.011389256,0.026806068,0.062058973,0.109547682,0.161109589,0.210234842,0.252160477,0.283899127,0.305104249,0.318275534,0.327011171,0.333610581,0.338467596,0.341510468,0.343364495,0.344601447,0.344565433,0.342401508,0.340029194,0.343320897,0.358477927,0.385626605,0.415761732,0.435418257,0.436560674,0.42316464,0.407035718,0.394498507,0.376244266,0.334290125,0.266685139,0.209852715,0.230335517,0.377832479,0.629836688,0.879230319,0.990419235,0.890745343,0.625595166,0.329664303,0.135783456,0.093372369,0.155583517,0.233709031,0.266395209,0.250426302,0.220912904,0.210207763,0.223297493,0.243528124,0.253829073,0.250484989,0.240439181,0.230522004,0.221076907,0.207731451,0.186281359,0.155434727,0.117169078,0.076799072,0.042741866,0.024217708,0.027075836,0.050828223,0.08943648,0.134824864,0.179944337,0.21978681,0.251377048,0.27396665,0.288928121,0.298432602,0.303750974,0.305102524,0.30322021,0.300317839,0.298654968,0.298280456,0.29736308,0.295740003,0.297766089,0.310020905,0.334566033,0.364138209,0.385314837,0.388483044,0.375840714,0.358637439,0.344282718,0.32555255,0.286220496,0.224122501,0.172317435,0.191501598,0.326395319,0.554916345,0.777830857,0.871633565,0.772677701,0.526170584,0.257394808,0.086756003,0.055938397,0.118605392,0.192339575,0.222209291,0.207337272,0.180905203,0.172014008,0.184171952,0.201864829,0.210235263,0.206730591,0.197669218,0.188556899,0.179336644,0.16665548,0.147674871,0.121300536,0.088104865,0.051455584,0.018807559,0,0.002333359,0.026345302,0.065972056,0.112425672,0.158040418,0.197741091,0.22895447,0.251503028,0.267300349,0.278943539,0.287898434,0.294187279,0.297893422,0.300290726,0.302773163,0.305023776,0.305607766,0.305359504,0.309540666,0.324664249,0.351457738,0.380965709,0.399410582,0.399070101,0.384969261,0.3691843,0.356314689,0.335106781,0.289553883,0.225128651,0.185628818,0.235103143,0.406544659,0.655451798,0.86539606,0.915900655,0.766743109,0.490679529,0.22518894,0.080820936,0.077604429,0.15274479,0.222251534,0.241176683,0.219443849,0.193756588,0.189506363,0.205019602,0.223126866,0.231042541,0.228727921,0.222769867,0.216909674,0.209251535,0.195842388,0.174360347,0.144803357,0.109300055,0.073082383,0.044844356,0.033833118,0.044834539,0.075441596,0.118042984,0.164241562,0.207758404,0.244719381,0.273220657,0.29351871,0.307843143,0.31872499,0.327093489,0.332415581,0.334775256,0.336027359,0.338093273,0.340375781,0.34011122,0.336360128,0.333547703,0.339783711,0.36002732,0.389837589,0.416143149,0.425953942,0.416531238,0.397573701,0.381293836,0.367617445,0.340154444,0.283468788,0.212220591,0.183355705,0.266818437,0.484785035,0.767751835,0.976282963,0.987037654,0.781048182,0.461381695,0.183128242,0.051560224,0.066988783,0.149989058,0.214024196,0.222988174,0.1963573,0.173237227,0.174667384,0.193467726,0.210246662,0.213482834,0.205543766,0.19469793,0.185284088,0.175219864,0.159865006,0.136222324,0.104443542,0.067955948,0.033549151,0.010304426,0.006222185,0.024258481,0.061003074,0.10894889,0.160002207,0.207573444,0.247086089,0.276334272,0.295971119,0.308888176,0.318088895,0.324837336,0.328995505,0.330875697,0.331949854,0.333288386,0.33393269,0.332096138,0.328743149,0.329467734,0.341304566,0.366086962,0.396319127,0.418511536,0.422689329,0.410344953,0.392589925,0.377940789,0.360367671,0.322531948,0.258358594,0.197901536,0.205327295,0.336557518,0.581440671,0.842078691,0.980139907,0.908236509,0.655035204,0.348702587,0.130025124,0.064140875,0.116106682,0.198230778,0.241197976,0.232608962,0.203824147,0.189788238,0.200372744,0.221554579,0.235313469,0.235375669,0.227088763,0.217489247,0.208049209,0.195374625,0.175779016,0.148123656,0.114044571,0.077831141,0.046575463,0.028852182,0.031255636,0.055101263,0.09604605,0.146549665,0.198702267,0.245774194,0.283090225,0.309089037,0.325718566,0.33682625,0.345287851,0.351563099,0.355053268,0.356321823,0.357189112,0.358560529,0.359122028,0.35737723,0.355316738,0.359231901,0.375411579,0.403719007,0.435063444,0.456251726,0.459374556,0.447864586,0.432491399,0.418830661,0.397842962,0.353036277,0.284687907,0.230916509,0.25766199,0.410793244,0.66233667,0.902079703,0.997134951,0.882573185,0.611282354,0.319690772,0.135644564,0.101187379,0.165193533,0.239766798,0.267100745,0.246655269,0.213870091,0.20025614,0.210503229,0.228483429,0.23742253,0.232888283,0.22062755,0.207061426,0.193539273,0.177476356,0.155992054,0.127882064,0.094145198,0.058773826,0.029174617,0.01414042,0.019638524,0.045641574,0.086602042,0.134621503,0.182338173,0.224083452,0.256321007,0.27833112,0.292274352,0.30153939,0.308345463,0.312962378,0.315215012,0.31609375,0.317199424,0.318846798,0.319853025,0.32014994,0.323303869,0.334981004,0.357372686,0.384675611,0.405146417,0.409523542,0.39862197,0.381904371,0.366419908,0.346397559,0.307140401,0.245819134,0.192442181,0.205015232,0.329355814,0.548740932,0.769781848,0.870255912,0.781625013,0.541679522,0.271519315,0.093442692,0.05485824,0.114086862,0.189047284,0.221534687,0.207160592,0.178226762,0.16574033,0.175739914,0.1936332,0.203510491,0.201178111,0.192272632,0.18284306,0.173747624,0.162052134,0.144728426,0.120272449,0.088900426,0.05361775,0.021454605,0.001984637,0.002734643,0.025028386,0.063825869,0.111050597,0.15903737,0.20197921,0.236239155,0.260863421,0.277714816,0.289952293,0.299628801,0.306855439,0.3113468,0.314124505,0.316805228,0.319314892,0.319613337,0.316976154,0.315589408,0.323333066,0.345104257,0.376263541,0.403388385,0.413549684,0.404832973,0.387734061,0.373948016,0.36170973,0.334055182,0.278362349,0.214269578,0.200612653,0.301148148,0.525223842,0.792869297,0.966770099,0.940256,0.715812081,0.407984948,0.165364948,0.073800919,0.114822582,0.202226404,0.256093694,0.252663357,0.220075201,0.198159207,0.2033343,0.224033828,0.240105686,0.24208047,0.234119431,0.224266257,0.215425985,0.204759594,0.188291101,0.164173249,0.133001666,0.097678276,0.064113829,0.040658556,0.034844142,0.049487192,0.081534671,0.124386804,0.170855868,0.214632598,0.250784773,0.276852589,0.293885113,0.305540886,0.315071485,0.323095079,0.328414938,0.330685245,0.331385301,0.331907524,0.331481223,0.328279922,0.323160573,0.321782863,0.331585953,0.355205698,0.3860113,0.410630992,0.417836725,0.407259833,0.389435718,0.374908799,0.36060634,0.328910011,0.267732048,0.19876145,0.183998499,0.289764314,0.524962456,0.80547843,0.988130329,0.962110669,0.729522219,0.407783438,0.149588285,0.044540529,0.076845123,0.161500568,0.217889755,0.219717989,0.191844187,0.1719598,0.176591233,0.195964797,0.211686946,0.214746475,0.208638714,0.200528341,0.192731905,0.182092893,0.164465297,0.138178871,0.104675463,0.068008082,0.03496489,0.014172577,0.013013736,0.033981508,0.073568187,0.124281892,0.177927786,0.227509932,0.267975186,0.296948742,0.315383161,0.326705831,0.334495654,0.340553654,0.345091015,0.348350051,0.351096581,0.353390365,0.353694543,0.350809507,0.347081278,0.349128107,0.363453473,0.389920864,0.41913354,0.437467271,0.437164281,0.422572237,0.405618362,0.392204921,0.372225174,0.327530825,0.257782073,0.202458445,0.230349943,0.389357992,0.650670784,0.900165728,1,0.882578426,0.60240462,0.300802035,0.110578852,0.07564957,0.143186631,0.222254077,0.253265641,0.236157351,0.207557914,0.19904236,0.214040925,0.235095988,0.245689127,0.242872227,0.233777969,0.224450137,0.214573998,0.199994092,0.177620893,0.147383529,0.111928615,0.075978246,0.046819634,0.032620128,0.038947368,0.065668895,0.107394867,0.156318319,0.204960257,0.247567896,0.280519382,0.30319307,0.317581301,0.326965745,0.33342355,0.337488886,0.339448252,0.340639761,0.342520182,0.344584362,0.344370901,0.341181207,0.339092607,0.34551228,0.365275247,0.394502862,0.420952528,0.432364799,0.425717344,0.409809996,0.396005893,0.384001555,0.358348977,0.304207218,0.235695798,0.207055346,0.285239446,0.492131694,0.762218747,0.962704994,0.975022774,0.780039046,0.475689721,0.210603946,0.086296663,0.103075029,0.184356656,0.24649357,0.255024118,0.2291233,0.206970781,0.208412131,0.225747562,0.240144784,0.241215431,0.232394803,0.222211417,0.214010145,0.204486732,0.188176534,0.162292421,0.127916447,0.08894163,0.052047133,0.025703387,0.017466816,0.030414018,0.061622258,0.104146108,0.150301483,0.193742929,0.230112216,0.257177346,0.275476214,0.287360385,0.295758378,0.301523614,0.304711439,0.305702577,0.306045847,0.30657007,0.30621052,0.303565053,0.300385754,0.302962769,0.317834517,0.345017944,0.375077763,0.394961937,0.397149688,0.386217646,0.371757056,0.357084532,0.330999108,0.280375251,0.213655835,0.176040814,0.229756034,0.403734935,0.649685551,0.850692821,0.889895158,0.73327121,0.457737447,0.199865029,0.0649367,0.067048084,0.141490343
0.248549219,0.254516468,0.261375412,0.272617899,0.292567686,0.320933531,0.349412722,0.365774835,0.363748147,0.349247727,0.334298446,0.321963379,0.29853588,0.247494623,0.178955184,0.14559125,0.217645055,0.423702115,0.703744339,0.924449007,0.959701367,0.779228705,0.473466772,0.192520291,0.047639596,0.050795086,0.130638012,0.199877539,0.215515221,0.191143969,0.165646753,0.164125634,0.182998495,0.203051072,0.210518733,0.205840173,0.196968163,0.18882608,0.179833391,0.165740931,0.144117099,0.115441728,0.082501647,0.050662544,0.028058653,0.02317696,0.040369634,0.077130804,0.125724681,0.177400388,0.225431374,0.265591734,0.295733933,0.315967319,0.328650787,0.336925788,0.342643186,0.345910735,0.346672064,0.34602,0.345297296,0.344326096,0.341875081,0.33881521,0.340243239,0.352668717,0.377381843,0.406263698,0.425531148,0.425859022,0.410189989,0.390667282,0.375265082,0.356264346,0.31548367,0.248433223,0.188315272,0.20097741,0.340133902,0.590435231,0.849766655,0.980251748,0.899617669,0.642438958,0.339172232,0.127952214,0.068812303,0.123133822,0.203137641,0.242192594,0.230750027,0.201103115,0.187144617,0.197281392,0.217115291,0.229417495,0.228752359,0.220428191,0.210795144,0.200923823,0.18775516,0.168185955,0.14119784,0.108070054,0.072922417,0.043319591,0.028533322,0.035171908,0.063469468,0.107495773,0.158715886,0.209484443,0.254343271,0.29001036,0.315597168,0.33273208,0.344354611,0.352615285,0.357973641,0.360381558,0.360727967,0.360386767,0.359554482,0.357267193,0.354113563,0.354599196,0.365158149,0.388048781,0.416662797,0.438001177,0.441875833,0.429120577,0.410141742,0.393125404,0.372518726,0.332185739,0.266733305,0.204547395,0.205484192,0.321371623,0.542740699,0.779217715,0.903357692,0.834791086,0.600112254,0.317625281,0.11722499,0.05877607,0.109364064,0.187168528,0.227697326,0.219732513,0.192853247,0.17967036,0.189179589,0.208331828,0.220799228,0.221150237,0.214036568,0.205003438,0.194676122,0.180225013,0.159371681,0.131980315,0.099554654,0.065414459,0.035642838,0.01822252,0.019437833,0.040297444,0.076276806,0.120293319,0.165840045,0.208040828,0.24332808,0.269512015,0.286413766,0.295830999,0.300403766,0.302430728,0.303502487,0.304463175,0.305092377,0.304318379,0.302088964,0.301702134,0.309169983,0.32809598,0.353979522,0.374689126,0.379105243,0.366861394,0.348506866,0.333456216,0.316939249,0.282392234,0.223313072,0.166638732,0.169753677,0.280887659,0.488263355,0.70423739,0.810084742,0.735731567,0.512543964,0.25428936,0.080005737,0.039613912,0.096744792,0.17282422,0.209332338,0.199474243,0.173889254,0.163616501,0.17532591,0.194651315,0.205877853,0.205773978,0.2012752,0.198619253,0.197010559,0.191118405,0.176687308,0.152988613,0.122110687,0.088528942,0.059616042,0.044419432,0.049602178,0.075606843,0.11673244,0.164811892,0.212761602,0.255562002,0.289847559,0.314200983,0.329846408,0.339874243,0.346938824,0.351791133,0.354200652,0.354665346,0.354336609,0.353437589,0.351180243,0.348489036,0.350323156,0.363174744,0.38823924,0.416911411,0.434972054,0.43366558,0.417462326,0.399255566,0.385444844,0.365822436,0.322877855,0.258079616,0.211563615,0.248212874,0.408135466,0.65663114,0.882113034,0.958328984,0.830877779,0.559550484,0.279561776,0.111213422,0.088471221,0.156586701,0.229588092,0.254569509,0.234973039,0.206713482,0.198513423,0.211678855,0.228971335,0.235488007,0.229781035,0.219155788,0.209245147,0.199396599,0.185495389,0.164315093,0.135170498,0.099967187,0.063760709,0.034798064,0.021820533,0.02955758,0.056319549,0.095858109,0.141213129,0.186798854,0.228038762,0.260994855,0.283586569,0.296884223,0.304279988,0.309022167,0.312709974,0.315866262,0.318865103,0.321506625,0.322400217,0.320562323,0.318654312,0.323613407,0.341667621,0.37096181,0.399531952,0.412883325,0.405871906,0.387331766,0.370769132,0.358130638,0.333881717,0.281184466,0.211143165,0.176713782,0.246821877,0.448653279,0.722708228,0.93806305,0.970849392,0.791177917,0.488210173,0.210447352,0.067997818,0.072096534,0.151102262,0.218320754,0.232181053,0.20739854,0.182514615,0.18116887,0.19887675,0.217175032,0.223865452,0.219965808,0.212351675,0.204337448,0.19366654,0.176536438,0.151163354,0.118285243,0.080962099,0.045354973,0.020500404,0.014939125,0.032027426,0.068173262,0.11549601,0.165959802,0.213423076,0.253457338,0.283276506,0.302684082,0.314333525,0.321925847,0.32776794,0.332196647,0.335021111,0.336651534,0.337544676,0.337590182,0.33748838,0.340856243,0.353228465,0.376755347,0.405214226,0.425852033,0.428705279,0.415344184,0.397110776,0.382091275,0.363150309,0.322789265,0.257051349,0.198893073,0.212480132,0.348999101,0.591912985,0.8412314,0.963886707,0.881799149,0.629957947,0.335341287,0.131606089,0.076400718,0.131585101,0.211276208,0.250443811,0.240229663,0.212910142,0.201852593,0.214543367,0.235731944,0.248116741,0.247159952,0.239290932,0.231145501,0.222912141,0.210175275,0.189044932,0.158838582,0.12207833,0.084277351,0.053609234,0.038516616,0.043554254,0.066990321,0.102669612,0.144113345,0.186669581,0.226548176,0.259624456,0.282621731,0.295390722,0.301046518,0.30334949,0.304196494,0.303695283,0.301822799,0.299075213,0.295820563,0.292533188,0.29166577,0.298306675,0.316585586,0.34378638,0.368774863,0.378864955,0.37038091,0.352070535,0.335533199,0.320459977,0.2915462,0.236391062,0.172233372,0.153139954,0.238558037,0.438403389,0.680598206,0.839803936,0.817548019,0.614366365,0.333706677,0.111737364,0.028553137,0.068488866,0.152168893,0.204671242,0.202995051,0.173268813,0.153207605,0.158403881,0.177710617,0.192088028,0.193203302,0.185711432,0.177090822,0.16912442,0.158431469,0.141677906,0.118198007,0.089031328,0.056394734,0.025239581,0.003751934,0,0.016961361,0.050774891,0.093679129,0.138232579,0.179110112,0.212628299,0.236585434,0.251206675,0.259314165,0.264451808,0.268569282,0.271636516,0.273062312,0.272732955,0.270835012,0.268073518,0.267225282,0.273665839,0.291863913,0.319496341,0.345769337,0.358263463,0.353362912,0.339053707,0.324841533,0.308184841,0.274683953,0.21837502,0.165518073,0.173152715,0.290320706,0.506393152,0.733550753,0.850712023,0.784185193,0.562638102,0.299922562,0.11805395,0.070997818,0.125008202,0.201374107,0.239411792,0.230177196,0.203737325,0.192025057,0.202734568,0.221585793,0.232152723,0.230587597,0.223833051,0.218488493,0.213988213,0.205068914,0.187698242,0.161573764,0.128989823,0.094032048,0.063290322,0.045239939,0.046536677,0.068004951,0.104397463,0.148054568,0.192593626,0.233719892,0.268318722,0.294497095,0.312663414,0.325372458,0.335145321,0.342563776,0.346923809,0.348373307,0.348480638,0.348562711,0.348606715,0.349060178,0.353346982,0.366631549,0.390157785,0.416726661,0.433736412,0.433071036,0.418644612,0.402339401,0.389844066,0.370471628,0.325828613,0.256095141,0.20112025,0.228368564,0.383451079,0.636983591,0.877882003,0.973416807,0.858820743,0.586405932,0.292039887,0.104194533,0.066605478,0.129541871,0.205236344,0.235116309,0.217836144,0.188162818,0.17675486,0.187551578,0.204733797,0.213240159,0.210561902,0.202789207,0.194629739,0.185097311,0.170519887,0.148658651,0.119638965,0.085347959,0.050129317,0.021725612,0.009334722,0.018838312,0.049276971,0.093834248,0.143935996,0.192503872,0.234633524,0.267320847,0.289894407,0.304334862,0.313924641,0.320920278,0.325696188,0.328142332,0.329123624,0.32984163,0.330226542,0.329431877,0.328851933,0.33382354,0.3502336,0.377803327,0.406955718,0.424257846,0.423008242,0.40878852,0.392753003,0.377409029,0.350096562,0.296207219,0.225784446,0.187942244,0.248784926,0.437525746,0.701413647,0.9162002,0.9589984,0.793872493,0.501296449,0.224784081,0.076089195,0.07227058,0.146660907,0.213566055,0.229233871,0.206017112,0.18194615,0.181551478,0.200863829,0.220623897,0.227293016,0.221420598,0.210797123,0.200251737,0.188514071,0.171835517,0.147985776,0.117310573,0.082614307,0.049651326,0.026757979,0.021765315,0.037805732,0.071818759,0.117004313,0.166380771,0.214251061,0.255808771,0.287375504,0.307964435,0.320001564,0.3274931,0.33316318,0.337518376,0.340305342,0.34185974,0.342545973,0.3418323,0.339570176,0.338771989,0.345790073,0.365480595,0.394868678,0.422307633,0.435077202,0.429700637,0.414681332,0.400931096,0.387589494,0.358963456,0.301755963,0.232059699,0.20489446,0.285243241,0.491752434,0.757748268,0.952953866,0.96335435,0.77223166,0.475983714,0.219123381,0.099587075,0.117038035,0.19623918,0.255520533,0.26154468,0.234185974,0.211631666,0.213747647,0.232616119,0.248890576,0.25171898,0.244079942,0.234115594,0.225286808,0.214526976,0.196745542,0.169168808,0.132648043,0.091609,0.053922124,0.029297477,0.025274801,0.043253022,0.078134406,0.121815107,0.167027803,0.208582304,0.242772427,0.267450437,0.283092553,0.292730171,0.299685489,0.305155808,0.308278343,0.308312461,0.30602327,0.302774005,0.299278011,0.296475165,0.297559464,0.307416728,0.328075298,0.354238333,0.374781365,0.380825069,0.373244121,0.360981518,0.349739376,0.33201418,0.292142275,0.22784642,0.170588019,0.179384356,0.300168985,0.516405954,0.735966673,0.838374539,0.755534526,0.523453166,0.260456393,0.087262751,0.051718304,0.113355178,0.190428095,0.224027595,0.209298935,0.17924912,0.166166078,0.176609252,0.195321025,0.205445373,0.202676221,0.193398077,0.184353999,0.176262578,0.165370383,0.147935863,0.122476228,0.089933946,0.054228503,0.022841263,0.004919591,0.006769119,0.02836963,0.0641012,0.106571451,0.149656856,0.188897039,0.220929589,0.244011105,0.258991634,0.268735457,0.275948328,0.281660874,0.285804335,0.288489158,0.290010059,0.290087243,0.288638613,0.288223337,0.294674711,0.312956783,0.340801173,0.367208258,0.379723807,0.375088471,0.362071586,0.351171281,0.340053061,0.312013404,0.255793771,0.192610777,0.180888946,0.280905673,0.497798744,0.751339901,0.910210892,0.876667357,0.658307019,0.366854781,0.142364632,0.062740808,0.10699921,0.191802866,0.241947791,0.236800212,0.204863957,0.184478249,0.190338355,0.210233967,0.224883141,0.226439148,0.22008442,0.213406183,0.207918996,0.199840344,0.185461644,0.163848665,0.136032292,0.104594698,0.075071031,0.056013869,0.05532112,0.07536848,0.111696679,0.156273277,0.201683674,0.242747585,0.276068422,0.300020744,0.31560794,0.326105352,0.334646667,0.341981557,0.346944816,0.348856101,0.348610688,0.347281172,0.344785343,0.341376233,0.340491914,0.348384789,0.368743785,0.396781912,0.419811214,0.426025445,0.414485124,0.396000435,0.381614555,0.368182213,0.337357836,0.275880058,0.203957196,0.182382536,0.278231428,0.504480043,0.782742612,0.972733703,0.960198692,0.739250504,0.420912386,0.158021124,0.045835595,0.074220165,0.159310203,0.217479844,0.219202561,0.188911595,0.166186878,0.1692532,0.188301911,0.203860406,0.206170349,0.198786383,0.189245139,0.180268546,0.169158889,0.152201287,0.127719578,0.096313794,0.061059379,0.028486267,0.007903338,0.007381617,0.029152762,0.068571483,0.117341498,0.167557872,0.213457844,0.25118921,0.278844472,0.297068507,0.308631773,0.316406888,0.321605641,0.324247412,0.324812078,0.32461587,0.324355005,0.323448291,0.32214504,0.324127815,0.335286414,0.357923646,0.385709899,0.405995832,0.409393767,0.398022077,0.382807592,0.370110353,0.35078356,0.306904972,0.23690452,0.177947966,0.197123611,0.344216568,0.596760201,0.848057455,0.962691791,0.866815526,0.603400569,0.305405451,0.106415975,0.058876408,0.118897719,0.198440644,0.234484539,0.221590063,0.193838827,0.183900882,0.197641732,0.218991473,0.231087281,0.230125186,0.222707205,0.215138796,0.207413013,0.195397144,0.175553246,0.147032798,0.111712392,0.07452838,0.043908923,0.02959432,0.037930568,0.068358699,0.114307199,0.167167009,0.219392288,0.265248562,0.300693916,0.324379719,0.338462977,0.347272911,0.354260321,0.360198469,0.364231881,0.365982725,0.365982729,0.364696177,0.362509425,0.361773165,0.36772381,0.385245699,0.412951039,0.441100866,0.457273316,0.456292207,0.444473313,0.431932344,0.418792214,0.390452729,0.332834188,0.25933472,0.223010829,0.290996465,0.488835211,0.757400416,0.968173581,1,0.8238747,0.527429105,0.256119457,0.117279631,0.120922003,0.19585135,0.257019849,0.264800497,0.235383724,0.207764532,0.204749954,0.220308456,0.234857913,0.236278996,0.226857993,0.215007624,0.204813741,0.193933209,0.177874348,0.154070663,0.122405873,0.08515606,0.048123822,0.020641411,0.012186171,0.02693595,0.061393336,0.107070137,0.15525548,0.19957702,0.235986717,0.262343785,0.278980676
0.167342652,0.185194626,0.197982185,0.204466,0.205813799,0.204314978,0.201247467,0.195549806,0.184355808,0.164994746,0.137022418,0.103093348,0.068550509,0.040288913,0.025241432,0.028465465,0.051142801,0.089560598,0.136149084,0.182406202,0.222052567,0.252540349,0.274382455,0.289395999,0.299392099,0.305909671,0.310409424,0.314080658,0.317181354,0.318750348,0.317598766,0.314409843,0.313268452,0.320442228,0.339907033,0.36840277,0.394909841,0.407154933,0.401263956,0.385440263,0.371536667,0.360158536,0.335476522,0.281741329,0.21253577,0.183406269,0.26317725,0.474289345,0.749999958,0.955600442,0.971503982,0.778188411,0.473489482,0.206144543,0.078434416,0.092425466,0.172641331,0.235164396,0.243981634,0.21752821,0.194397959,0.195807525,0.214633886,0.231157207,0.233719156,0.225097319,0.213962333,0.204306261,0.193142453,0.175430648,0.148982462,0.115459216,0.079319012,0.047267115,0.027536067,0.027192714,0.048433838,0.087159638,0.135314978,0.184751093,0.229455271,0.26566056,0.291652797,0.308191762,0.318335971,0.325622214,0.331837351,0.336565801,0.338726269,0.338102884,0.335481873,0.332357955,0.331548532,0.337612405,0.354502899,0.380728942,0.406906022,0.420519324,0.415767636,0.398998878,0.381944204,0.367058287,0.34081281,0.287636257,0.21742003,0.17963964,0.239865372,0.425375792,0.681948762,0.887039096,0.922840736,0.758359311,0.474577232,0.210300057,0.071029469,0.070680443,0.144014391,0.208941606,0.22414253,0.201947839,0.179013397,0.1788088,0.19730834,0.215907181,0.221911822,0.216521829,0.207649099,0.199540123,0.189959906,0.174564044,0.151384491,0.121567251,0.088483266,0.057882889,0.037905854,0.036396945,0.056445171,0.094269862,0.14168306,0.190603019,0.23553084,0.273125706,0.301377658,0.320159947,0.331879548,0.340239755,0.347695003,0.354164696,0.358125375,0.358462944,0.355254624,0.34984993,0.345484694,0.347590738,0.361331024,0.386419729,0.413995247,0.430757107,0.428951943,0.413061133,0.394734799,0.378751637,0.354609128,0.30699388,0.240829604,0.197136989,0.235813476,0.38782382,0.612686096,0.804033897,0.851580739,0.717458579,0.466030235,0.221119062,0.083927539,0.075043558,0.139679845,0.202065983,0.220298827,0.20214067,0.180416198,0.177960721,0.192535901,0.207621924,0.211607251,0.205821615,0.197903749,0.191668653,0.184256515,0.170593432,0.148152779,0.117840367,0.082949396,0.049092191,0.024250035,0.016382418,0.029189808,0.059907287,0.101422448,0.146412443,0.189550866,0.226980427,0.255656368,0.274405129,0.285175431,0.291980886,0.297849568,0.30280251,0.304844296,0.302654776,0.297343768,0.292365058,0.292440648,0.30185404,0.321629349,0.34670364,0.366662401,0.372108943,0.362408089,0.346179607,0.33118147,0.31272897,0.276079468,0.217230692,0.164812142,0.175553974,0.294003348,0.503212054,0.712577636,0.805759249,0.719624072,0.492182314,0.238617856,0.07353317,0.040546939,0.099824098,0.173669222,0.206760679,0.194931357,0.169562086,0.160995002,0.174708692,0.195203858,0.205946022,0.203454983,0.195100747,0.18794547,0.181914643,0.172100815,0.154587661,0.129083583,0.098000496,0.065659886,0.038794759,0.025718746,0.032555329,0.059254171,0.09944089,0.144362316,0.187108326,0.223866707,0.252865823,0.273631879,0.28730642,0.296460129,0.303515352,0.309222453,0.312919144,0.314045041,0.312943793,0.310490885,0.308137185,0.309072966,0.318283204,0.339002056,0.36745126,0.392014519,0.400568832,0.390935273,0.373417087,0.359902107,0.348418147,0.321135604,0.264857984,0.199696707,0.185177317,0.284673529,0.506400248,0.770602449,0.942557146,0.918525694,0.700891457,0.400294002,0.160742838,0.066773112,0.102658409,0.186106342,0.239041566,0.236913184,0.206170988,0.185689139,0.191696622,0.21252356,0.227946584,0.228873637,0.220252849,0.210495685,0.201936822,0.190757671,0.17260677,0.146262003,0.113374524,0.077698869,0.045682686,0.026025905,0.026044254,0.047188034,0.084193818,0.128759137,0.173915047,0.215377067,0.250392517,0.277105547,0.29542419,0.307417513,0.315786373,0.321901305,0.325717378,0.327289998,0.327476606,0.32697577,0.325846515,0.325309207,0.329743026,0.344771145,0.371171063,0.400503893,0.418923522,0.417939035,0.40211268,0.384164642,0.369868861,0.348093887,0.300909193,0.230794103,0.180354229,0.217122656,0.382260424,0.639593198,0.874123294,0.955904815,0.828277113,0.551195876,0.262354465,0.085628836,0.057828908,0.124934532,0.199601735,0.226817165,0.208718334,0.181195356,0.173538334,0.187359501,0.205344798,0.212590889,0.207930656,0.198831029,0.190521277,0.181591736,0.167578945,0.145798425,0.116647016,0.082846558,0.049577046,0.024792669,0.017010863,0.030865752,0.064301813,0.110133215,0.160153571,0.207916545,0.248938965,0.280335749,0.301481308,0.314520315,0.322958996,0.329150591,0.333347541,0.33516017,0.335170507,0.334546673,0.333765339,0.333205421,0.335549551,0.34615807,0.368638549,0.398823472,0.424383041,0.433174493,0.423840141,0.407274657,0.394674202,0.382395187,0.351535352,0.289900266,0.220721947,0.20712445,0.31411725,0.54787052,0.823320557,1,0.971662687,0.743245148,0.431320494,0.185138204,0.090496779,0.128961465,0.214450322,0.267025599,0.26290141,0.230348862,0.209275521,0.215691707,0.237204029,0.253077073,0.253966423,0.244651972,0.233581439,0.223499612,0.211068056,0.191892438,0.164124659,0.129008793,0.090976895,0.05807977,0.040315377,0.044834864,0.071478413,0.113029176,0.160014293,0.205374385,0.245363337,0.277829313,0.301293872,0.315757589,0.323143584,0.325994825,0.325913669,0.323697324,0.320498864,0.317770497,0.315876362,0.313994591,0.312663834,0.316002173,0.329338936,0.352910674,0.378295289,0.393295025,0.392167571,0.380538886,0.367845395,0.353565912,0.32354295,0.26635559,0.198910778,0.173999782,0.250733538,0.441463856,0.678945831,0.841899257,0.831409666,0.64227607,0.370386683,0.147759591,0.056460487,0.086964239,0.165441325,0.218339567,0.219989525,0.192822961,0.172718005,0.175842055,0.192563477,0.204760535,0.204182279,0.195421097,0.186169264,0.178376223,0.168321473,0.151925219,0.127916613,0.097230704,0.062379255,0.028761022,0.005087548,0,0.016838826,0.051519464,0.095408697,0.140010225,0.179456817,0.210451246,0.231974074,0.245645034,0.255143534,0.263758522,0.272036969,0.278120152,0.280369538,0.279259395,0.276871293,0.275653863,0.278519246,0.28919796,0.310017257,0.337577548,0.361565933,0.370900326,0.363367745,0.348380537,0.336965597,0.327065592,0.301593511,0.24817514,0.186590965,0.174014844,0.270108378,0.480599686,0.727509028,0.882857596,0.851400515,0.640335684,0.357953175,0.140204289,0.063208697,0.107475546,0.192629956,0.245215418,0.244060394,0.215937682,0.197971408,0.204748492,0.224458336,0.238078008,0.237941559,0.229654695,0.221312872,0.214491048,0.204883971,0.1882516,0.163818833,0.133461241,0.100586231,0.070867616,0.052289164,0.051922402,0.071492882,0.106244466,0.148261986,0.190683191,0.229148249,0.260884555,0.284255625,0.299611039,0.30945292,0.316618577,0.322212346,0.325715871,0.326834124,0.326321034,0.324785738,0.321898918,0.318279623,0.318114493,0.327890394,0.350186535,0.378155483,0.397929862,0.399081706,0.383794204,0.364239678,0.348370581,0.328013798,0.285308526,0.218013232,0.16203285,0.182673072,0.327971015,0.575063635,0.81912674,0.928210288,0.831323446,0.571601207,0.279367085,0.084842423,0.038654235,0.097367939,0.174644492,0.208848047,0.19488172,0.166354471,0.155383584,0.167538969,0.186863169,0.196842556,0.194133178,0.185681498,0.177880692,0.170588921,0.159472472,0.140966757,0.114463874,0.082104584,0.048838991,0.022531319,0.011783891,0.021639658,0.050769181,0.092848436,0.140426202,0.187415997,0.22899108,0.261173516,0.282028864,0.293112946,0.298637464,0.302526858,0.306295091,0.309598885,0.311966382,0.313300358,0.313390522,0.312659406,0.314265975,0.324177008,0.346545633,0.3774572,0.404275412,0.414017231,0.404514175,0.386678661,0.372837209,0.36082643,0.332112754,0.272811225,0.20315376,0.184351895,0.282920423,0.509920708,0.785422263,0.970108412,0.953180886,0.732043997,0.41811854,0.16159769,0.054408785,0.084821453,0.1695656,0.226584819,0.227598026,0.19755191,0.175963746,0.180595549,0.200972412,0.217115222,0.21928381,0.211471375,0.201600072,0.192387382,0.18093523,0.16354892,0.138892032,0.107984396,0.074140996,0.043972354,0.026710837,0.030036235,0.055320857,0.096919685,0.146100636,0.195462978,0.240174554,0.27683415,0.303131498,0.319092185,0.327596238,0.332536547,0.336260055,0.338989553,0.340284344,0.340226132,0.339212103,0.337943391,0.338848327,0.346880144,0.366492263,0.395770156,0.424019903,0.437889199,0.432400232,0.415764618,0.400527204,0.387686423,0.361555587,0.306998058,0.238400204,0.210754701,0.290198536,0.496153207,0.761692381,0.956002704,0.965091032,0.77271697,0.475598376,0.218262973,0.098671572,0.116517688,0.196148369,0.254961894,0.259009695,0.228757756,0.203851209,0.205016076,0.223564758,0.238388882,0.237561778,0.224651329,0.20954201,0.197407039,0.186205087,0.171232058,0.149505376,0.120844265,0.087871938,0.056658809,0.036074885,0.033979251,0.052500984,0.086895207,0.129039716,0.171857726,0.210761468,0.242536438,0.264898859,0.277887009,0.28467714,0.289668131,0.295154879,0.300072518,0.301918114,0.299576013,0.294475061,0.290140831,0.291332315,0.302583445,0.324970376,0.352695323,0.374061212,0.379019493,0.367713672,0.350203647,0.334662919,0.315266393,0.276211136,0.214654469,0.162501175,0.178850461,0.30646594,0.522669954,0.731437521,0.816133834,0.719245569,0.486048934,0.234966268,0.077618559,0.051350503,0.111905899,0.18195371,0.209984735,0.19525796,0.169453451,0.160539907,0.171696012,0.187382685,0.193098896,0.187452263,0.178318036,0.171694821,0.166096108,0.155874947,0.137190375,0.110224958,0.077964167,0.045228157,0.018937354,0.007025068,0.014747121,0.041338416,0.080521609,0.124468858,0.167265822,0.205367554,0.236492959,0.259506754,0.27532028,0.286685335,0.296141304,0.304178445,0.309575651,0.311359579,0.310039034,0.307541289,0.30703816,0.312891005,0.329016388,0.354841538,0.382287992,0.399099261,0.398156063,0.384215587,0.368876758,0.356140923,0.334159509,0.28762114,0.224886341,0.192740513,0.253668382,0.432526396,0.675219894,0.863607619,0.887773117,0.723961063,0.454550022,0.212282315,0.092808809,0.102796084,0.176221598,0.235627435,0.245412609,0.221010492,0.198763006,0.199943715,0.218587369,0.235552938,0.238984755,0.231466976,0.221848373,0.214373536,0.20608351,0.191822014,0.169207303,0.139346534,0.105471822,0.073036561,0.049821498,0.043705084,0.05822969,0.090244731,0.132119747,0.176146147,0.217102163,0.251774755,0.278071948,0.295467768,0.305821527,0.312403943,0.317652085,0.321930899,0.324539101,0.325092777,0.323814508,0.321135779,0.318756604,0.320990596,0.333439279,0.357568429,0.386116747,0.405473991,0.405878441,0.39020089,0.371266121,0.357139026,0.338859434,0.297273459,0.229526762,0.172586221,0.193771218,0.34219359,0.593878722,0.841251876,0.950277051,0.850011967,0.585507111,0.289274925,0.092603392,0.045822452,0.104540807,0.181558958,0.21501596,0.200139849,0.171099294,0.160277564,0.173074464,0.193148888,0.203682531,0.201240459,0.192570298,0.183626422,0.173997661,0.159622505,0.138041297,0.109775957,0.077273527,0.044908578,0.019819201,0.010533622,0.022616193,0.05497067,0.100549741,0.15056559,0.198225327,0.239070568,0.270514618,0.291827945,0.304973927,0.31358494,0.320715144,0.326925167,0.331321082,0.333172274,0.33299721,0.331970128,0.331998971,0.337059117,0.35200016,0.378070537,0.40834011,0.429565326,0.431635967,0.416722127,0.39693226,0.380627492,0.359818168,0.316510559,0.248895374,0.194078228,0.218365304,0.368651352,0.618623771,0.860538853,0.963153115,0.859861352,0.59856685,0.310859248,0.123863352,0.083707361,0.144375017,0.22004331,0.251457468,0.235630638,0.206989697,0.197291988,0.211340451,0.232342592,0.243390595,0.241118578,0.232586398,0.223965934,0.214918609,0.201193938,0.179835405,0.150851889,0.116526224,0.081688029,0.054279436,0.043417253,0.054642276,0.086332956,0.130766169,0.178877608,0.224231915,0.26298448,0.292943374,0.313218941,0.325283028,0.332294158,0.336777255,0.33942756,0.33962691,0.337408759,0.333500397,0.329177977,0.325744789,0.326369779,0.33552876,0.354853537,0.378866095,0.396215327,0.397747243,0.384674249,0.366098029,0.346773164,0.318355861,0.267985246,0.202046238,0.161538722,0.205052568,0.361820646,0.588981107,0.778531823,0.821140669,0.682009059,0.429441408,0.189304451,0.061581506,0.063178279,0.135383388,0.200503969,0.21713302,0.19520978,0.17039122,0.167426044,0.184346362
