0.284202899,0.281842307,0.277429883,0.270163054,0.260293427,0.24890253,0.237272346,0.226235133,0.215870008,0.20565962,0.194926476,0.183250809,0.170670372,0.157636745,0.144807773,0.132776932,0.121844067,0.111934047,0.102717044,0.093861146,0.085243351,0.076966289,0.069171724,0.061788855,0.05439896,0.046340512,0.037089086,0.02685554,0.017234606,0.011618112,0.015055292,0.033389991,0.071804532,0.133197578,0.21695328,0.318563363,0.430298196,0.54278544,0.647042768,0.73632908,0.807225446,0.859652326,0.895952639,0.919509028,0.933457289,0.939902202,0.939763109,0.933119664,0.919777045,0.899748294,0.873451872,0.841603057,0.804950926,0.764079718,0.719418501,0.671448114,0.620969331,0.56927028,0.518094308,0.46940633,0.425038869,0.386344321,0.353974192,0.327847016,0.307281161,0.291208112,0.278381862,0.267546046,0.257563016,0.247516451,0.236783935,0.225069154,0.212392577,0.19904611,0.185510298,0.17232831,0.159950392,0.148597734,0.138210014,0.128510863,0.119164494,0.109946189,0.100839621,0.092005846,0.083625184,0.07567731,0.067779082,0.059216521,0.04925967,0.037735934,0.025698802,0.01592698,0.012975993,0.022601119,0.050563308,0.10106936,0.175299312,0.27053806,0.380291012,0.49544947,0.606198868,0.704089791,0.783634214,0.842969097,0.883470174,0.908564238,0.922236512,0.927769577,0.927081047,0.920740019,0.908473329,0.889831811,0.864707755,0.833534599,0.797176631,0.75665268,0.712885617,0.666619789,0.618532624,0.569447267,0.520495864,0.473116983,0.428868284,0.389133155,0.354843385,0.326317753,0.30325661,0.284872893,0.270102905,0.257828604,0.247052297,0.236989743,0.227081906,0.216956461,0.206383046,0.195254589,0.183598027,0.171588879,0.159533482,0.147798681,0.136704384,0.126427624,0.11697189,0.108221777,0.100047474,0.092383736,0.085215753,0.078462346,0.071825245,0.06472782,0.056463544,0.046604185,0.0355978,0.025357771,0.019562999,0.023410822,0.042713366,0.082472958,0.145320875,0.230339146,0.332724904,0.444501613,0.556122852,0.658495297,0.744798452,0.811560193,0.858724928,0.888811416,0.905555983,0.912561253,0.912386372,0.906277603,0.894462199,0.876731289,0.852988375,0.823536182,0.789051339,0.750361825,0.708220164,0.663229544,0.615963125,0.567190763,0.518062337,0.470121894,0.425118437,0.384680596,0.349980745,0.321507714,0.299011622,0.281615567,0.268039211,0.256861492,0.246757935,0.236669915,0.225889524,0.214068549,0.201176959,0.187438727,0.173260521,0.159151988,0.145630087,0.133111924,0.121822732,0.111758566,0.102730209,0.094476618,0.086792841,0.07959728,0.07288514,0.066575883,0.060336643,0.05351305,0.04529078,0.035133715,0.023416475,0.012037164,0.004720979,0.006758374,0.024079226,0.061809194,0.12269608,0.205922138,0.306755586,0.417242852,0.5277915,0.629181404,0.714394419,0.77972782,0.824921026,0.852372317,0.865817685,0.868978318,0.86461642,0.854215663,0.838229547,0.816637104,0.789486253,0.757193558,0.720541729,0.68047985,0.637909163,0.593602957,0.548296312,0.502862209,0.458434298,0.41637062,0.378048607,0.344577681,0.316556608,0.293972383,0.276263114,0.262496311,0.251581741,0.24245018,0.234166659,0.225983343,0.217357,0.207956199,0.197669529,0.18660756,0.175078412,0.16351933,0.152386585,0.142034321,0.13263088,0.124152231,0.116454542,0.109380246,0.102824312,0.096703419,0.090830452,0.084772789,0.077822314,0.069192283,0.058472095,0.04624166,0.034625468,0.027511781,0.030215553,0.048526663,0.087312595,0.149052769,0.232777282,0.333805867,0.444443135,0.555468689,0.657991383,0.745124342,0.813021887,0.861058137,0.891218171,0.907003419,0.912247126,0.910179954,0.902928061,0.891447936,0.87577698,0.855437224,0.829853599,0.798695551,0.762090527,0.720687655,0.675582747,0.628153425,0.579876962,0.532192537,0.486426707,0.443754975,0.405155815,0.371334807,0.342635427,0.31897866,0.299869164,0.284477702,0.27177875,0.260706021,0.250290395,0.23975726,0.228575116,0.216460741,0.203356022,0.189394034,0.174864251,0.160173209,0.145788635,0.13216194,0.119643528,0.10842209,0.098515186,0.089809954,0.082116777,0.075184462,0.068653173,0.061983957,0.054464718,0.045405319,0.034571369,0.022779613,0.01244134,0.007766439,0.014386763,0.038332449,0.084546132,0.155347403,0.249356166,0.361287168,0.482758919,0.603919317,0.71541484,0.810129795,0.884227892,0.937283959,0.971589785,0.990947229,0.999360439,1,0.994670993,0.983831486,0.967037604,0.9435837,0.913086136,0.875823006,0.83276042,0.785323311,0.735058588,0.683357509,0.631347492,0.579960382,0.530088605,0.482703316,0.438845893,0.399487485,0.3653277,0.336630542,0.313166761,0.29427391,0.278996303,0.266249898,0.254970088,0.244224396,0.233289099,0.221693241,0.209231328,0.195945135,0.182077867,0.168007798,0.154170721,0.140981151,0.128762642,0.117697689,0.107804767,0.098942176,0.090828534,0.083066475,0.075167615,0.066601451,0.056913403,0.045955539,0.034233094,0.023296456,0.016030091,0.016648533,0.030242498,0.06184032,0.115137121,0.191229843,0.287789291,0.399029068,0.516592729,0.631159178,0.734299975,0.820030822,0.885621018,0.931499026,0.960397528,0.976098503,0.982203714,0.981273942,0.974507057,0.961932171,0.942946131,0.916946288,0.883828734,0.844207414,0.79933122,0.750790037,0.70016762,0.64879616,0.597697791,0.547695098,0.499587235,0.454264831,0.412685058,0.375715806,0.34393154,0.317463079,0.295966172,0.27870957,0.264732504,0.253007517,0.242564482,0.232564116,0.222333671,0.211384934,0.199428896,0.186390242,0.172414734,0.15785725,0.143239475,0.129173269,0.116255712,0.104950724,0.095477577,0.087728603,0.081238811,0.075230626,0.0687558,0.060947373,0.051370102,0.040417257,0.029656608,0.021999329,0.0215714,0.033215788,0.061640803,0.110341427,0.18053201,0.270400612,0.374977578,0.486771367,0.597085914,0.697683973,0.782315997,0.847671124,0.893514769,0.922062168,0.936874853,0.941669582,0.939382043,0.931680899,0.918957435,0.900683581,0.875963569,0.844098555,0.805019293,0.759497657,0.709108406,0.655971692,0.602360022,0.550291069,0.501232291,0.456002018,0.414872498,0.377797989,0.344647885,0.315343011,0.289857774,0.268122238,0.249899197,0.234708949,0.221840328,0.210443907,0.199671314,0.18881195,0.177385105,0.165167308,0.152163565,0.138554985,0.124660286,0.110928268,0.097940709,0.086373682,0.076866165,0.06978953,0.064984938,0.061598351,0.058151506,0.052920474,0.044569578,0.032860246,0.019184941,0.006705723,0,0.004281379,0.024398056,0.06385818,0.124085006,0.204010965,0.30004322,0.406404172,0.515841063,0.620654752,0.713897592,0.790479183,0.847879127,0.886252994,0.907909736,0.916350205,0.91518781,0.907272765,0.894228102,0.876444538,0.85344209,0.824428615,0.788871111,0.746926373,0.699631439,0.648819582,0.596797212,0.545883537,0.49796086,0.454186428,0.41496009,0.380136342,0.349359465,0.322347641,0.298992936,0.27925861,0.262973664,0.249674853,0.238603603,0.228864255,0.219656382,0.210459328,0.201082511,0.191571521,0.182033358,0.172478978,0.162766854,0.152678651,0.142091399,0.131156383,0.120374586,0.110486406,0.102168193,0.095631134,0.09030853,0.084845634,0.077532557,0.067147785,0.053963961,0.040509155,0.031672412,0.033931085,0.053808628,0.09601203,0.16188928,0.248780467,0.350516659,0.458879275,0.56547304,0.663356135,0.747953306,0.817136433,0.870697515,0.909599832,0.935339408,0.949563881,0.953909702,0.949928025,0.938990103,0.922150544,0.900027353,0.872786416,0.840282658,0.802338101,0.7590697,0.711149676,0.659901833,0.607197572,0.555184541,0.505933092,0.461102449,0.421711254,0.388060017,0.359807275,0.336159301,0.316105724,0.298629671,0.282846398,0.268064051,0.253793294,0.239739127,0.225788865,0.211985409,0.198467391,0.185373571,0.172738871,0.160430212,0.148166123,0.135632093,0.122658212,0.109383965,0.096319247,0.084232946,0.073862417,0.065527972,0.058820585,0.052566519,0.045217529,0.035658471,0.024212949,0.013447302,0.008336951,0.015522086,0.041714489,0.091693005,0.166571523,0.263005949,0.373698328,0.489074013,0.599553013,0.697619799,0.779019908,0.842811063,0.890472802,0.924602367,0.947764459,0.961850793,0.967988141,0.966789595,0.958665405,0.943996244,0.923129985,0.896298208,0.863586235,0.825038367,0.780880923,0.731763653,0.67890104,0.624040089,0.569257556,0.516657256,0.468063696,0.424790654,0.38752066,0.356295362,0.330596851,0.309492667,0.291819318,0.27637501,0.262094022,0.248179979,0.234182768,0.220008474,0.20585676,0.192091805,0.179073721,0.166999922,0.155816733,0.145243169,0.134902297,0.124506017,0.114003601,0.103613882,0.09370697,0.084572301,0.076170441,0.068003706,0.059225785,0.049046091,0.037375657,0.025529709,0.016700258,0.015900892,0.029204873,0.062338738,0.118983879,0.199332796,0.299457293,0.411808473,0.526776832,0.634842386,0.728614594,0.804105525,0.860886926,0.901215974,0.928583364,0.946282077,0.956486732,0.960040736,0.956832363,0.94644037,0.92870118,0.90397062,0.873048391,0.836897162,0.796365425,0.752081797,0.704570228,0.654506202,0.602953488,0.551440874,0.501817301,0.45594066,0.415314276,0.380803544,0.352516957,0.329864338,0.311755732,0.296868448,0.283900784,0.271758179,0.259646131,0.247079356,0.233851714,0.219994538,0.20573789,0.191459615,0.177600993,0.164551472,0.152537286,0.141565656,0.131462421,0.121982068,0.112920424,0.104146332,0.095516427,0.086722769,0.077209222,0.06629579,0.053586952,0.039588585,0.026311909,0.017564555,0.018673908,0.035564638,0.073339134,0.134753238,0.219067204,0.321697303,0.434858007,0.549062149,0.655055985,0.745628231,0.816776866,0.867949142,0.901378031,0.920814,0.93013249,0.932249133,0.928637693,0.919471675,0.904202051,0.882244401,0.85348704,0.818450486,0.778130121,0.733676361,0.686134761,0.636378704,0.585244856,0.53375182,0.48323524,0.435279746,0.391466338,0.35303358,0.320613092,0.294139278,0.272948416,0.255997825,0.242110795,0.230170274,0.219222356,0.20851571,0.19749729,0.185795272,0.173224714,0.159803866,0.145775065,0.131598737,0.117891073,0.105310337,0.094393972,0.085403912,0.078223895,0.07233679,0.066883157,0.060833553,0.053233527,0.043534606,0.031963251,0.019869269,0.009939547,0.006137723,0.013301225,0.036350664,0.079207997,0.143672796,0.228548852,0.329374355,0.43893063,0.548497194,0.64952637,0.735262334,0.801824628,0.848488745,0.877154753,0.891286215,0.894682009,0.89047951,0.880594666,0.865656613,0.845345924,0.818946511,0.785931451,0.746397938,0.701278478,0.652282915,0.601622769,0.551604839,0.50421711,0.460853722,0.422212223,0.388394276,0.359120473,0.33394313,0.312390259,0.294001993,0.27829464,0.26473077,0.252697279,0.241564873,0.230758697,0.219853202,0.208605147,0.196963787,0.184991736,0.172795323,0.160461382,0.148065152,0.135747829,0.123822885,0.112797754,0.10326891,0.095661312,0.089900825,0.08520689,0.080173668,0.073215998,0.063322848,0.050843019,0.038010903,0.028907131,0.028825173,0.043162087,0.076158882,0.129905736,0.203819363,0.294685566,0.397150154,0.504521835,0.609695014,0.70612215,0.788683888,0.854294452,0.902137265,0.933413993,0.950708466,0.957122255,0.955478115,0.947757861,0.934892111,0.91690271,0.893224649,0.863145401,0.826211448,0.782548744,0.733042573,0.679327989,0.62361053,0.568366982,0.515922494,0.468075445,0.42586055,0.38948788,0.358498177,0.332062352,0.309236934,0.289204947,0.271348193,0.25524447,0.240599704,0.227174217,0.214725484,0.202985151,0.191635209,0.180345169,0.168802266,0.156768562,0.144096844,0.130843012,0.117254087,0.103850073,0.09133278,0.080444708,0.071684112,0.064978829,0.059483845,0.053707994,0.046046986,0.035665854,0.023447363,0.012528385,0.008146871,0.01661954,0.043731497,0.093056222,0.164783539,0.255525456,0.359088131,0.467914081,0.574592556,0.67301266,0.758982523,0.83020159,0.885993887,0.926909802,0.954304766,0.969999735,0.975964314,0.973997342,0.965470339,0.951129427,0.931132764,0.905161205,0.872726559,0.83352482,0.787756477,0.736347827,0.680992558,0.623978972,0.567876689,0.515085692,0.467466478,0.426073249,0.39107317,0.36191391,0.337586122,0.316985464,0.299083738,0.283080682,0.268351976,0.254449474,0.240980359,0.227672114,0.214385241,0.201147999,0.188069556,0.175251397,0.162750086,0.150454373,0.138227014,0.126005325,0.113946941,0.102490509,0.092202801,0.083535421,0.076475339,0.070318874,0.063772453,0.055407791,0.044606327,0.032442548,0.022314395,0.01981919,0.031743759,0.06433602,0.121294447,0.202379237,0.302932436,0.414792063,0.528101041,0.633691039,0.724907285,0.798516655,0.854479092,0.894856726,0.922488458,0.939926678,0.94879792,0.950107267,0.944323716,0.931834752
0.072502901,0.061680452,0.049863177,0.035688093,0.020620493,0.009028547,0.007230111,0.021855134,0.058054044,0.11805195,0.200381946,0.299944356,0.408875223,0.51803915,0.618786388,0.704508974,0.771585675,0.81951801,0.850323127,0.867446986,0.874548634,0.874499189,0.868852176,0.85787786,0.841050106,0.817719347,0.787681132,0.751455894,0.710250329,0.665689069,0.619459443,0.573016245,0.52745468,0.48357434,0.442051044,0.403573026,0.368834742,0.338391238,0.312472362,0.290871327,0.272964175,0.257845201,0.24452306,0.232113454,0.219970987,0.207724106,0.195218503,0.182419762,0.169341068,0.156031358,0.142609536,0.129302509,0.116452835,0.10448457,0.093829534,0.084821435,0.077576065,0.071892568,0.067217155,0.062698035,0.057341839,0.050273029,0.041091298,0.030291966,0.019652887,0.012429224,0.013185916,0.027167519,0.059245861,0.112654264,0.187853902,0.281919577,0.38873023,0.500006851,0.606938767,0.701914064,0.779834587,0.83866775,0.879176643,0.904040216,0.916723201,0.92045381,0.917554118,0.909209357,0.895619745,0.876391672,0.851004685,0.819219834,0.781343586,0.738308289,0.691572608,0.642888422,0.594018125,0.546497362,0.501508453,0.459870603,0.422099862,0.388475616,0.359074519,0.333772897,0.312246018,0.293993185,0.278397255,0.264802449,0.252582248,0.241177453,0.230106169,0.21896504,0.207440143,0.19532954,0.182564975,0.169221796,0.15551908,0.141817361,0.128607609,0.116462821,0.105918539,0.097278933,0.090402614,0.084574492,0.078579495,0.071041124,0.06098405,0.048465549,0.035049894,0.023915902,0.019496619,0.026710157,0.049979854,0.092297941,0.1545456,0.235184227,0.330340539,0.434257434,0.540058418,0.640735267,0.730199504,0.804171556,0.8606773,0.900015238,0.924223792,0.936242107,0.939040332,0.934962941,0.925410835,0.910853635,0.891074497,0.865526756,0.833704583,0.795463349,0.751246444,0.702182699,0.650026149,0.596933324,0.545117073,0.496466737,0.452253344,0.413018397,0.378673967,0.34875286,0.322689466,0.300015685,0.280414108,0.263644972,0.249415266,0.237270288,0.22656558,0.21653704,0.206444981,0.195736043,0.184156218,0.171767084,0.158862899,0.145838259,0.133082367,0.12095316,0.109819586,0.100093734,0.092158601,0.086158661,0.0817355,0.077890206,0.073161827,0.066193687,0.056557327,0.045518688,0.036372459,0.034091789,0.044303688,0.071887444,0.119664386,0.187614467,0.272835099,0.370166458,0.473194115,0.575294974,0.670496572,0.754071087,0.822883081,0.875522701,0.912225084,0.934564533,0.9449488,0.946005478,0.940003469,0.928451928,0.911963571,0.890385529,0.863126382,0.829568274,0.789453095,0.743159083,0.691820424,0.637274415,0.581846536,0.528009871,0.477986607,0.433387855,0.394993153,0.362735362,0.335885632,0.313359666,0.294030228,0.276949293,0.261439826,0.247076036,0.233603349,0.220849332,0.208657304,0.196852598,0.185237296,0.173603878,0.161759136,0.149554877,0.136928728,0.123959979,0.110933587,0.098379639,0.087031038,0.077646148,0.070696289,0.066012084,0.062572185,0.058637595,0.052338509,0.042620583,0.030235602,0.018336628,0.012303095,0.018684665,0.043516114,0.090553354,0.160059575,0.248574775,0.349714592,0.455651576,0.558722552,0.652661829,0.733214001,0.798169145,0.847039475,0.880611564,0.90051528,0.908843744,0.90780464,0.899392316,0.885110236,0.865803318,0.841655533,0.812370065,0.777494361,0.736803273,0.690629876,0.640045245,0.586832208,0.533258366,0.481710263,0.434287045,0.392460552,0.35688892,0.327426012,0.303308725,0.283447151,0.266713762,0.252143825,0.239013244,0.22682096,0.215235784,0.204057178,0.193200716,0.182683689,0.172579859,0.162937697,0.153693729,0.144634383,0.135447747,0.125863021,0.115821039,0.105583255,0.095693072,0.086759708,0.079126153,0.072572184,0.066243998,0.058955943,0.049871786,0.039383048,0.02983985,0.025745292,0.033152386,0.058282815,0.10571818,0.176751632,0.268510154,0.374230263,0.484668017,0.590206245,0.682963533,0.758224549,0.814796082,0.854321086,0.879961632,0.895028625,0.902040536,0.902414837,0.896689857,0.884985184,0.867398417,0.844171112,0.815639278,0.782110982,0.743828535,0.701087116,0.654459967,0.604998695,0.554279471,0.504242834,0.45687637,0.413858642,0.376288255,0.34457156,0.318471604,0.297267369,0.279954733,0.265434141,0.252656622,0.240723747,0.228950808,0.216904861,0.204421918,0.191595465,0.178721165,0.166190252,0.154348455,0.143366422,0.133180264,0.123540617,0.114157898,0.104874576,0.095766669,0.087099488,0.079133905,0.071868278,0.064863946,0.057302971,0.048354421,0.037799614,0.026730707,0.018044251,0.016448527,0.027814637,0.057911343,0.110810891,0.18744084,0.284791519,0.396127147,0.51223067,0.623352129,0.72127151,0.800839585,0.860550496,0.902054641,0.92889488,0.944990316,0.953409228,0.955779867,0.952389207,0.942753304,0.926311793,0.902932364,0.873065436,0.837579948,0.79745254,0.753520135,0.706435538,0.656831742,0.605576413,0.553948483,0.503615178,0.456397043,0.413915316,0.37726431,0.346826066,0.322271839,0.302719968,0.286975807,0.273774388,0.261968818,0.250640385,0.239137043,0.227066679,0.214274517,0.20082012,0.186948072,0.173034141,0.159496957,0.146691345,0.134823939,0.123932385,0.113937796,0.104732211,0.096231524,0.0883388,0.080825449,0.073217022,0.064816565,0.054971939,0.043589734,0.031756237,0.022210585,0.019390871,0.028871911,0.05621497,0.105486405,0.177879548,0.270908622,0.378502571,0.492049111,0.602124062,0.700408316,0.781233389,0.842329322,0.884623481,0.911251833,0.926181133,0.93291911,0.933693448,0.929262068,0.91927439,0.902930879,0.879639468,0.849436384,0.813076756,0.771843119,0.727215851,0.680571929,0.633030617,0.585474646,0.538687295,0.493499419,0.450852098,0.411734942,0.377024652,0.347290456,0.32264158,0.302671907,0.286523702,0.273056902,0.261079735,0.249576723,0.237868946,0.225664565,0.212998758,0.20010349,0.187267868,0.174740317,0.162693104,0.151237238,0.14045745,0.130437395,0.121256829,0.112955932,0.105472729,0.098569917,0.091783159,0.084440353,0.075806888,0.065390109,0.05337643,0.041093382,0.0313173,0.028230508,0.036897893,0.062279779,0.107981996,0.175091142,0.261479433,0.361855388,0.468610323,0.573251937,0.668025717,0.747275182,0.80819556,0.850841372,0.877476579,0.891528502,0.896479926,0.895002801,0.888525146,0.877272764,0.860684108,0.838000013,0.808805053,0.773345729,0.732554377,0.687827374,0.640696221,0.592553634,0.544542134,0.497609997,0.45264405,0.410556155,0.372246001,0.338451069,0.309569165,0.285551984,0.265921553,0.249891718,0.236529464,0.224891982,0.214112581,0.203449696,0.192327396,0.180382157,0.167503117,0.153840068,0.139763025,0.125781817,0.112452986,0.100301901,0.089767179,0.081150626,0.074544245,0.069724897,0.066049034,0.062429475,0.057495444,0.050000096,0.039438953,0.02670757,0.014527648,0.007372403,0.010761712,0.030037436,0.068966449,0.128632569,0.206994868,0.299240149,0.398762619,0.498412167,0.591644967,0.673343622,0.740244853,0.791021463,0.826093105,0.847225353,0.856972485,0.858045041,0.852722449,0.842444089,0.827679953,0.808103336,0.7830026,0.751797295,0.714496471,0.671957751,0.625869949,0.578469298,0.532091016,0.488710039,0.449620453,0.415339498,0.385728963,0.360246105,0.338207999,0.318973836,0.302013982,0.286890456,0.273203536,0.260554151,0.248542932,0.23679879,0.225017187,0.212988164,0.200603681,0.187844797,0.174758324,0.161445868,0.148083791,0.134973517,0.122583932,0.111523944,0.102393703,0.09552335,0.090691658,0.086978764,0.082902863,0.07689416,0.068013695,0.056679004,0.045099013,0.0371868,0.037903401,0.052201532,0.083895065,0.13478697,0.204261942,0.289358103,0.385199461,0.485641002,0.584038524,0.674098652,0.75074304,0.810830907,0.853529774,0.880171476,0.893596461,0.89719168,0.893940489,0.885785381,0.873444908,0.856644614,0.834589312,0.806478213,0.771912599,0.731134686,0.6850963,0.635387392,0.584051941,0.533310633,0.485232034,0.441410829,0.40274564,0.369389175,0.340890122,0.316463882,0.295275809,0.276628153,0.260002729,0.244998067,0.231240635,0.218352398,0.205984776,0.193885565,0.181935025,0.1701152,0.15842564,0.146800932,0.135094745,0.123153944,0.110956325,0.09873722,0.087010033,0.076427278,0.067496999,0.060261118,0.054104639,0.047849929,0.040203639,0.030450643,0.019158197,0.008592524,0.002617005,0.006050947,0.02364088,0.058962137,0.113560501,0.186548675,0.274706591,0.372989285,0.475263703,0.575107414,0.666598092,0.745019289,0.807426099,0.852927457,0.882571563,0.898802042,0.904640068,0.902856526,0.895418511,0.883335112,0.866860824,0.84585268,0.820078141,0.789365537,0.753647364,0.713024831,0.667935284,0.619400166,0.569174375,0.519642688,0.473391621,0.432582032,0.398377653,0.370708006,0.348458615,0.329995503,0.313756852,0.298660691,0.284199414,0.270275775,0.25692686,0.244117509,0.231681337,0.219395772,0.207097509,0.194749764,0.182412525,0.17017332,0.158095752,0.146257001,0.134847937,0.124255402,0.115011564,0.107556692,0.10190525,0.09735987,0.09254813,0.085889956,0.076482544,0.065101824,0.054872839,0.051206373,0.060812514,0.089964464,0.142589483,0.218831213,0.314688215,0.422853071,0.534463923,0.641120895,0.736454732,0.816824432,0.881099489,0.929878792,0.964587142,0.986840781,0.998166096,1,0.993725976,0.98064673,0.961813397,0.937867587,0.908972934,0.874933067,0.835492975,0.790703006,0.741192798,0.688283898,0.633862747,0.580109723,0.52912699,0.482618883,0.441636695,0.406494522,0.376817106,0.351723418,0.330091125,0.310805651,0.292971766,0.275996066,0.259594358,0.243718283,0.228460487,0.213976075,0.200387392,0.187719534,0.175873864,0.164600516,0.153547592,0.142360369,0.130780592,0.118782533,0.10663014,0.094821564,0.083911421,0.074236082,0.065618379,0.057242595,0.047881939,0.036471172,0.0230164,0.009439602,0,0.000895754,0.018972465,0.059824659,0.125932729,0.215474081,0.322382043,0.43761031,0.551280085,0.654818371,0.742517325,0.811972229,0.863566081,0.899354352,0.921906427,0.933541041,0.936011875,0.930574166,0.918210629,0.8997686,0.875976019,0.847344889,0.814111719,0.776272401,0.733827637,0.687028404,0.636668126,0.584169511,0.531456243,0.480701226,0.43391999,0.392649677,0.357706649,0.329132374,0.306315551,0.288201512,0.273589388,0.261345892,0.250565596,0.240594283,0.23099492,0.221489072,0.211897328,0.202152093,0.192245236,0.182255207,0.17225926,0.1622891,0.152351382,0.142434729,0.132614674,0.123059691,0.114025767,0.105669897,0.097864454,0.090080002,0.081438696,0.071133352,0.058967942,0.046173298,0.035811941,0.032826689,0.043349477,0.073349608,0.126911541,0.204805518,0.303649083,0.416217629,0.532841927,0.643412487,0.739574975,0.816198586,0.871908062,0.908543315,0.929782132,0.939730917,0.941591717,0.937230172,0.927220978,0.911401045,0.889538615,0.861728079,0.828466802,0.790546639,0.748737073,0.70375499,0.656231969,0.606976148,0.557074743,0.508088391,0.461734352,0.419712053,0.383215362,0.352769988,0.328139507,0.308430236,0.292394914,0.278755298,0.266400885,0.254540212,0.242693607,0.230638176,0.21826195,0.205576007,0.192700829,0.179757265,0.167043493,0.154818784,0.143303579,0.132479327,0.122315399,0.112646964,0.103414518,0.094606087,0.086292474,0.078323091,0.070302333,0.061505035,0.051138868,0.03897803,0.025868215,0.01433414,0.008894633,0.015341061,0.039776444,0.086940665,0.158753538,0.25327671,0.364534778,0.483668599,0.600599491,0.706139855,0.793799014,0.860622074,0.907285688,0.936740928,0.953087604,0.959942921,0.959714227,0.9534057,0.940992008,0.922122031,0.896697204,0.865119218,0.82822507,0.786972126,0.742258985,0.694682187,0.64479937,0.593275928,0.541242125,0.49021586,0.441884228,0.397895536,0.359561907,0.327343494,0.30114831,0.280230658,0.263393562,0.249244572,0.236476148,0.224019657,0.211352468,0.198167835,0.18472334,0.171186124,0.157816401,0.144658739,0.131591477,0.118663916,0.106031174,0.094184799,0.084000606,0.076344254,0.071652163,0.069762646,0.069693452,0.06975887,0.068214849,0.063494328,0.055067372,0.043936201,0.032518502,0.024980034,0.026375199,0.042245437,0.077277422,0.134149593,0.212518085,0.308560383,0.415620728,0.525105788,0.628422664,0.718224015,0.79000005,0.842486655,0.877232477,0.897539217,0.907188095,0.909394306,0.905910028,0.897237809,0.88301431,0.862362918,0.835054461,0.801492166,0.762542318,0.719802858,0.674695889,0.62856077,0.58212914,0.53617022,0.491281275,0.448379257,0.408480545,0.372573053,0.341275252,0.315141935,0.293903801,0.276735549,0.262787141,0.251111455,0.240561801,0.230514017,0.220351056,0.209731946,0.198685708,0.187115223,0.17517298,0.163186658
0.595703874,0.571820477,0.5443197,0.50961665,0.46762268,0.421374572,0.375405931,0.333787852,0.298807252,0.270736296,0.248477071,0.230497864,0.215552776,0.202981419,0.192636207,0.184587063,0.17877869,0.17481429,0.171973364,0.169426561,0.166484589,0.162726759,0.157983052,0.152253707,0.145645249,0.138331185,0.130518784,0.122438105,0.114380611,0.106751046,0.100028751,0.094570376,0.090322939,0.086631121,0.082308265,0.076016163,0.066864434,0.055058117,0.042382019,0.032305898,0.029568474,0.039278714,0.065785992,0.111673569,0.177147957,0.259907343,0.355425086,0.457550191,0.559346906,0.654078196,0.736171684,0.801961154,0.850030621,0.881090226,0.897434309,0.902136805,0.89820944,0.887956949,0.872685112,0.852773794,0.827996736,0.797925742,0.762299152,0.721297692,0.675699682,0.62688899,0.576704668,0.527165524,0.480146851,0.437097811,0.398866878,0.365669925,0.337200005,0.312836062,0.291870212,0.273669299,0.257731302,0.243661814,0.231128821,0.219834661,0.209503423,0.199865714,0.190639363,0.181523513,0.172218161,0.162461731,0.152073567,0.141001019,0.129376506,0.117568279,0.106175454,0.095912127,0.087368834,0.0807154,0.075476723,0.070533417,0.064449475,0.056108323,0.045480435,0.034223072,0.025809621,0.025037163,0.037009922,0.065917752,0.114006361,0.181037252,0.264327065,0.359253636,0.460011693,0.560415452,0.654629202,0.737783313,0.806452289,0.858942284,0.895311638,0.917080079,0.926672952,0.926746229,0.919582512,0.906710941,0.888811621,0.865871206,0.837498918,0.803296991,0.763191988,0.717659841,0.667809507,0.615320661,0.562253622,0.510766171,0.462789932,0.419739508,0.382334722,0.350589533,0.323960999,0.301589218,0.282533859,0.265938336,0.251105243,0.237508754,0.224779968,0.212685707,0.201100386,0.189961175,0.179204012,0.168696323,0.158198778,0.147389219,0.13596095,0.123771492,0.110983821,0.098126529,0.086011615,0.075490223,0.067093515,0.060683819,0.055298269,0.049358099,0.041309099,0.030567226,0.01844338,0.00862111,0.006842294,0.019721019,0.052962044,0.10955428,0.188595121,0.285212107,0.39164313,0.499087079,0.599652734,0.687750082,0.76056624,0.817682037,0.860201996,0.889855219,0.90838612,0.917313326,0.91793685,0.911403919,0.898700948,0.880556657,0.857337784,0.829043161,0.79545309,0.756407549,0.712118308,0.663398819,0.611725449,0.559104344,0.507781941,0.459881189,0.41706008,0.380276205,0.34970872,0.324845991,0.30470184,0.288088006,0.273859897,0.261075012,0.249049407,0.237341688,0.225711188,0.214080996,0.202505463,0.191122585,0.180079563,0.169447146,0.159162334,0.149039193,0.138859754,0.128514335,0.1181244,0.108070627,0.098874826,0.090945494,0.084276718,0.078256983,0.071757409,0.06359638,0.053321302,0.042059728,0.033062235,0.031577723,0.043901226,0.075758344,0.130505303,0.207778255,0.303126488,0.408829562,0.515658078,0.614980122,0.7005007,0.769102152,0.820642547,0.856980295,0.880737981,0.894305261,0.899356267,0.896865042,0.887394726,0.871392431,0.849323629,0.821639913,0.788693214,0.750730204,0.708028505,0.661128003,0.611035511,0.55928158,0.507779005,0.458528279,0.413281385,0.373280078,0.33913523,0.310846202,0.287912397,0.269480186,0.254487534,0.241793969,0.230299149,0.219055704,0.207374563,0.194908093,0.181684035,0.168061189,0.154595483,0.141841911,0.130157422,0.11958652,0.109886192,0.100683952,0.09169158,0.082858159,0.074366877,0.066457713,0.059158069,0.052076528,0.04442184,0.035337805,0.024515276,0.012899916,0.003213788,0,0.009008737,0.035955868,0.084937873,0.156979114,0.249223136,0.355116959,0.46561917,0.571106642,0.663402956,0.737308684,0.791199395,0.826597342,0.846979185,0.856312925,0.85784012,0.853446517,0.843690138,0.828304912,0.806865489,0.779314537,0.746182629,0.708499534,0.667528083,0.62449831,0.580473575,0.536377654,0.493112462,0.451653088,0.413036658,0.378236878,0.347985995,0.322630098,0.302076444,0.285838958,0.273146314,0.263066528,0.254618425,0.246863874,0.238987655,0.230369686,0.22064424,0.209732014,0.19782967,0.185349115,0.172813736,0.160736052,0.149512474,0.139367212,0.130355414,0.122403538,0.115341799,0.108889949,0.102599572,0.095815269,0.087755553,0.07779641,0.065956493,0.053460602,0.043153621,0.039510392,0.048072514,0.07432935,0.122286496,0.193138666,0.284500018,0.390506588,0.502830272,0.612334319,0.710880896,0.792761165,0.855369968,0.899022693,0.926096832,0.939868017,0.94344361,0.939086508,0.928030869,0.910704397,0.887158148,0.857492079,0.822131377,0.781905095,0.73795863,0.691575021,0.643989826,0.596269182,0.549285658,0.503778938,0.460446094,0.419992704,0.383102191,0.350332053,0.321989926,0.298052769,0.278165696,0.261714477,0.247935255,0.236021336,0.225204109,0.214805503,0.20426986,0.1931829,0.181282519,0.168465707,0.1547963,0.140514154,0.126036517,0.111931989,0.098845407,0.087364517,0.077845659,0.070246673,0.064036557,0.058249672,0.051721495,0.04348845,0.033272391,0.02192277,0.011675974,0.006119159,0.009807224,0.027557497,0.063520385,0.120188727,0.197560764,0.292695621,0.399861658,0.511348389,0.618808337,0.714792435,0.794043889,0.854183748,0.895635541,0.920898742,0.933475287,0.936808638,0.933515737,0.92504071,0.911710633,0.893076721,0.868389923,0.837072213,0.799079538,0.755092095,0.706506085,0.655240694,0.603416603,0.552999524,0.505515617,0.46191896,0.422628214,0.387680067,0.356908706,0.33007292,0.306901198,0.287075592,0.270198774,0.2557802,0.243253263,0.232015357,0.221476649,0.21110672,0.200473467,0.189271461,0.177340145,0.164676309,0.151447076,0.13800213,0.124867068,0.11268438,0.102072129,0.09340533,0.086582821,0.080894026,0.075107002,0.067840276,0.058167172,0.046278537,0.033957047,0.02464027,0.022973985,0.033937726,0.061780352,0.109062939,0.17604638,0.260526609,0.35809136,0.462705495,0.567524532,0.665836383,0.752001823,0.822217663,0.87491778,0.910697122,0.93178214,0.94121597,0.942007336,0.936474748,0.925920688,0.910648193,0.890237546,0.863959154,0.831203925,0.791841439,0.746447559,0.696367509,0.643601154,0.590525155,0.539506145,0.492500414,0.450754759,0.414697662,0.384041853,0.358039044,0.335777489,0.316418385,0.299316156,0.284027162,0.270249568,0.25774346,0.246265738,0.235533663,0.225217565,0.214956062,0.204387923,0.193196484,0.181166966,0.168256125,0.154663728,0.140875746,0.127629158,0.115750883,0.105864624,0.098039632,0.091539111,0.084859593,0.076186453,0.064223445,0.049149093,0.033311093,0.02128766,0.019145373,0.033036719,0.067570236,0.124505804,0.202212695,0.296024496,0.399285977,0.504674671,0.605382951,0.695917143,0.772482274,0.83305337,0.877248284,0.906066167,0.921505479,0.926079728,0.922289038,0.912147811,0.896877862,0.876838451,0.851702491,0.820820483,0.783664178,0.740227144,0.691274668,0.638381217,0.583751494,0.529875506,0.479108192,0.433281439,0.393447747,0.359818072,0.331895693,0.308742422,0.289272818,0.272477179,0.257527537,0.243784215,0.230761453,0.218104806,0.205596444,0.193165367,0.180866782,0.168816457,0.157102343,0.145721345,0.134583836,0.123595323,0.112774338,0.102335071,0.092661168,0.084141149,0.076904963,0.070577731,0.064210541,0.056530655,0.046550115,0.034402363,0.022108888,0.01389408,0.015746233,0.034170477,0.074412397,0.138703409,0.225160878,0.32779795,0.437715967,0.545121494,0.641498311,0.721227827,0.782188347,0.825283703,0.853249777,0.869295226,0.876079558,0.875282606,0.867720344,0.853752381,0.833687266,0.8079895,0.777263537,0.742121506,0.703082738,0.660610952,0.615282624,0.567997457,0.520105184,0.473359704,0.429685669,0.390827297,0.357991415,0.331604642,0.311260369,0.295865717,0.283934153,0.273924448,0.264521468,0.254796216,0.244232059,0.232666098,0.22019905,0.207114729,0.19381143,0.180725032,0.168238988,0.156596177,0.145857712,0.135934178,0.126680714,0.117996759,0.109858458,0.102235792,0.09493033,0.087438923,0.078984167,0.068810211,0.056729148,0.043768532,0.032662296,0.027903224,0.035189692,0.060271468,0.107450385,0.178157141,0.270086489,0.377232,0.490895906,0.601430585,0.700210962,0.781266267,0.842112907,0.883606801,0.908958102,0.922311024,0.927386956,0.926599026,0.920831947,0.909798964,0.892722771,0.869008474,0.838665699,0.802382531,0.761323634,0.716808982,0.670060945,0.622115586,0.573902719,0.526387924,0.48066096,0.437895721,0.399178179,0.365297472,0.33657862,0.312837214,0.293445055,0.277484056,0.263921174,0.251764788,0.240183474,0.228568243,0.216558875,0.204033389,0.191074626,0.17791473,0.164872839,0.152276688,0.14040017,0.129420157,0.119406257,0.110335687,0.102101519,0.094497558,0.087173641,0.079601046,0.071124652,0.061183198,0.049690751,0.037534206,0.027002723,0.021929145,0.027356802,0.048671946,0.090318977,0.154446741,0.239914415,0.34204681,0.453292939,0.564667631,0.667541411,0.755272356,0.824205075,0.873850124,0.906279435,0.925030551,0.933889094,0.935908153,0.932843799,0.925097434,0.912071295,0.89274986,0.866308471,0.83256649,0.792183128,0.746553937,0.697517597,0.646986904,0.596631513,0.547745566,0.501267739,0.457900289,0.418222581,0.382724015,0.351734709,0.325346634,0.30333309,0.285156169,0.270045501,0.257105476,0.245429711,0.234214695,0.222816955,0.210802998,0.197953395,0.184251567,0.169839425,0.155015132,0.140205098,0.125954653,0.112866728,0.101485543,0.092117973,0.084662986,0.07848118,0.072475788,0.065360814,0.056107735,0.044484184,0.031492898,0.019614534,0.012669999,0.015375493,0.032558944,0.068224849,0.124585332,0.201305379,0.295151868,0.400237031,0.508886353,0.612989457,0.705479339,0.781517759,0.83907178,0.87873898,0.902994824,0.91514754,0.918354332,0.914960874,0.906225734,0.892416227,0.873118661,0.84768455,0.815643668,0.777054249,0.732693074,0.684056753,0.633170826,0.582238834,0.533241846,0.487640412,0.446230867,0.409213811,0.376399885,0.347444876,0.322006796,0.299777275,0.280445048,0.263637046,0.248918532,0.235811232,0.223871134,0.212712568,0.202031887,0.191554072,0.181002644,0.170084797,0.158550929,0.146287194,0.133429759,0.120449665,0.108148134,0.097434265,0.089009801,0.083016715,0.078766646,0.074793082,0.069283886,0.060885838,0.049583922,0.037351472,0.028220603,0.027664296,0.041365836,0.073737952,0.126751609,0.199358794,0.287685429,0.385911548,0.487370538,0.585609104,0.675185143,0.752079638,0.813956264,0.860085904,0.891224485,0.909180652,0.916372361,0.915222302,0.907676859,0.894920604,0.877299767,0.854546496,0.826083061,0.791458721,0.750666829,0.70431619,0.653742694,0.60084921,0.547901351,0.497173759,0.450581347,0.409464172,0.37438028,0.345156806,0.32105764,0.301038496,0.284000385,0.268959673,0.255183436,0.242221992,0.229918004,0.218290517,0.207456721,0.197378491,0.187751197,0.177959828,0.167226137,0.154821552,0.140428507,0.124408232,0.107712693,0.091760803,0.077926562,0.067079885,0.059199097,0.053279574,0.047601245,0.040370481,0.030677339,0.019396521,0.009728578,0.007040783,0.017889243,0.048343491,0.10212712,0.179217642,0.275464422,0.383414516,0.493981618,0.598502204,0.690351379,0.765791939,0.82380698,0.865399302,0.892656025,0.907866766,0.913162042,0.910350626,0.900767892,0.88536902,0.864683734,0.838810869,0.807558106,0.770680628,0.728243924,0.680874187,0.629924647,0.577372839,0.525606996,0.476931524,0.433204603,0.395635012,0.364586717,0.339669441,0.319901889,0.304126147,0.291011995,0.27935526,0.268249779,0.257019735,0.245420125,0.233326749,0.220926173,0.208506083,0.196389974,0.184798474,0.173813533,0.163224801,0.152807532,0.142374908,0.131795106,0.12128466,0.111184355,0.101763903,0.093031228,0.084600018,0.075626815,0.065188542,0.053179977,0.040716441,0.030956232,0.028887048,0.040815683,0.072718904,0.128542592,0.208769447,0.309514909,0.423067281,0.539661771,0.649333483,0.744314294,0.820421901,0.876977923,0.916195938,0.941666658,0.956825589,0.964071858,0.964525181,0.958331569,0.945234488,0.92530219,0.898809775,0.866549416,0.829291563,0.787763122,0.74243098,0.693760975,0.642657189,0.590206667,0.53824381,0.488709875,0.443352241,0.403729592,0.370335496,0.343202228,0.321419034,0.30389084,0.289059263,0.275836376,0.263114096,0.25022493,0.236856498,0.222984121,0.208867316,0.194880318,0.181415357,0.168773994,0.157180085,0.146479165,0.136529268,0.127132256,0.117988403,0.109030275,0.100310901,0.091686424,0.082986542,0.073625584,0.062788695,0.050374144,0.037131746,0.025578711,0.019903019,0.02599769,0.049646932,0.095947032,0.166793055,0.260632514,0.371907248,0.491883927,0.610892968,0.719616424,0.811132484,0.882429703,0.933362662,0.966643056,0.986496013,0.996660349,1,0.997799318,0.98987252
0.551805044,0.555711397,0.559308976,0.55920752,0.553901391,0.543614411,0.529525787,0.512862926,0.494342765,0.474142758,0.452227693,0.428708596,0.404016923,0.378876165,0.354162245,0.330735417,0.309289629,0.290258881,0.273811728,0.259917497,0.248417345,0.239045342,0.231413529,0.225020012,0.219308658,0.213747101,0.207876577,0.201332553,0.193870993,0.185411785,0.176063337,0.166089472,0.155829112,0.145618639,0.13574917,0.126444979,0.117836113,0.109928056,0.102594588,0.095601478,0.08863772,0.081339708,0.073340388,0.064400561,0.054639616,0.044805768,0.036475938,0.032081622,0.034694764,0.047550693,0.073345633,0.113443474,0.167228505,0.231867298,0.302638557,0.373788289,0.439671718,0.495845424,0.539801304,0.571160582,0.591322345,0.602731092,0.608031173,0.609370612,0.608013358,0.604283101,0.5977646,0.587654519,0.573157048,0.553828967,0.529792773,0.50177142,0.470954262,0.43875584,0.406552087,0.375469943,0.346279505,0.319402094,0.295006875,0.27313514,0.253786846,0.23693733,0.222501554,0.210291644,0.200003613,0.191239295,0.18355,0.176488927,0.169664889,0.162786592,0.155681699,0.148283953,0.140603723,0.132710845,0.124746034,0.116945755,0.109641672,0.103199245,0.097889985,0.093733032,0.090376817,0.087103913,0.08301637,0.077391081,0.070107694,0.061990873,0.054915346,0.051600504,0.055133195,0.068347688,0.093223995,0.130439048,0.179147259,0.237011541,0.300471517,0.365216828,0.426809776,0.481360611,0.526114667,0.559799167,0.582628037,0.595968637,0.60178816,0.602062273,0.598315938,0.591393564,0.581467331,0.568227236,0.551167074,0.529880413,0.504297895,0.474822836,0.442348684,0.408163451,0.373762808,0.340610101,0.309899334,0.282385842,0.25833356,0.237585521,0.219715563,0.204193547,0.190507957,0.178226163,0.167007347,0.156596933,0.146823522,0.137601528,0.128928147,0.120859846,0.113462538,0.106746511,0.100612454,0.094839095,0.089131415,0.083224044,0.077005964,0.070611011,0.064415739,0.05891176,0.054474229,0.051114727,0.048350804,0.045310004,0.041101543,0.035361879,0.028770541,0.023299703,0.022033022,0.02854498,0.046008466,0.076318235,0.119524502,0.173756639,0.235631554,0.300970733,0.365571914,0.425820671,0.47904291,0.523615527,0.558911799,0.585153467,0.60320694,0.614336404,0.619928783,0.621224733,0.619104778,0.613975551,0.60577805,0.594109726,0.578427758,0.558287684,0.533567526,0.504629133,0.472375814,0.438182184,0.403700555,0.370583688,0.340194716,0.31338721,0.290421196,0.27103555,0.254639797,0.240545403,0.228150796,0.217028307,0.206914339,0.197645254,0.189090816,0.181116911,0.173579904,0.166336353,0.159251052,0.152196741,0.145049817,0.137692097,0.130029102,0.122030122,0.113783005,0.105537989,0.097699562,0.090729298,0.08495763,0.080362579,0.076430025,0.072222917,0.066727459,0.059420257,0.050862311,0.043048328,0.039281871,0.043512844,0.059300973,0.088751484,0.131811243,0.186183339,0.24787136,0.31212117,0.374405761,0.431145879,0.480028272,0.519967563,0.550862914,0.573299413,0.588276518,0.596976648,0.600558352,0.599971294,0.595817076,0.588292078,0.577235333,0.56227438,0.543031751,0.519337304,0.491392121,0.459845601,0.425771572,0.390552932,0.355701157,0.322646168,0.292536607,0.266091952,0.243541762,0.224667991,0.208935166,0.195663583,0.184189461,0.173970386,0.164624992,0.155923992,0.147760778,0.140122591,0.133067213,0.12669741,0.121122995,0.116408204,0.11251515,0.109265427,0.106345037,0.10336771,0.099988086,0.096026189,0.091543017,0.086811598,0.082168074,0.077794558,0.073548761,0.068973185,0.063560626,0.057231308,0.050842269,0.046475446,0.047292988,0.056907347,0.078426479,0.113500157,0.161723875,0.22062653,0.286233559,0.353972787,0.419585245,0.479759238,0.532373711,0.576413121,0.611711769,0.638677019,0.658067999,0.670832247,0.677968999,0.680397704,0.67883932,0.673738586,0.665254237,0.653324773,0.637792637,0.618551729,0.595678839,0.569518404,0.5407059,0.510130345,0.478846018,0.447949309,0.4184429,0.391117104,0.366479644,0.344752228,0.325925806,0.309841725,0.296261119,0.284904371,0.275470865,0.26766353,0.261231252,0.256015067,0.25196351,0.249086814,0.247349379,0.246538567,0.246172571,0.24550562,0.243654976,0.239824252,0.233550681,0.224878049,0.214365003,0.202885785,0.191260743,0.179844125,0.168257561,0.155447015,0.140137811,0.121589881,0.100384499,0.078893909,0.061155826,0.052085805,0.056229169,0.076462527,0.113104561,0.163756718,0.223920876,0.288150157,0.351307925,0.40951451,0.460537292,0.503631517,0.539042466,0.567450316,0.58957225,0.605995702,0.617187028,0.623559879,0.625506208,0.623357911,0.61731217,0.607384155,0.593438307,0.575308502,0.552973138,0.526724497,0.497271493,0.465736347,0.433537388,0.402180767,0.373007432,0.346956166,0.324406033,0.305146562,0.288489499,0.273490063,0.259208401,0.244932689,0.230308438,0.215358816,0.200415552,0.185994374,0.172645933,0.16080577,0.150665671,0.142093845,0.134632164,0.127586225,0.120197313,0.111854595,0.102284235,0.091649082,0.080511359,0.069649067,0.059768634,0.051209056,0.043766456,0.036757244,0.02936766,0.02121724,0.012940101,0.006526122,0.005214928,0.0128953,0.033166245,0.06836427,0.118879746,0.182964637,0.257041292,0.336357333,0.415767967,0.490467303,0.556572847,0.611524558,0.654268137,0.685188058,0.705784681,0.718161472,0.724461403,0.726414523,0.725110626,0.721016301,0.714167588,0.704427149,0.691709139,0.676120453,0.658013349,0.637969831,0.616742453,0.595169428,0.574075452,0.554168277,0.535945815,0.519632763,0.505165816,0.492235327,0.480373351,0.469060531,0.457819514,0.446272778,0.434162329,0.421345723,0.407787137,0.393554002,0.378814091,0.363816825,0.348843351,0.334124959,0.319752691,0.305617061,0.29141483,0.276737951,0.261225511,0.244729163,0.227427303,0.209828791,0.192639896,0.176519141,0.161806936,0.148358034,0.135596408,0.122838327,0.109804608,0.097125513,0.086592656,0.080977013,0.083395291,0.096405545,0.121150824,0.156876673,0.201010172,0.249765412,0.299036359,0.345249976,0.385912392,0.419741797,0.44645794,0.466402733,0.480174914,0.488396441,0.491636422,0.490443871,0.485405317,0.477147327,0.466244288,0.45304891,0.437525573,0.419203691,0.397353832,0.371409556,0.341523,0.309006891,0.276362896,0.246695958,0.222584709,0.204829922,0.19175162,0.179652652,0.164609861,0.145019063,0.123662096,0.107924746,0.107451181,0.129811603,0.176071213,0.238634399,0.302900616,0.352364449,0.374882697,0.367104024,0.335021792,0.290661038,0.246806691,0.212372803,0.19028841,0.178262243,0.171402787,0.165087148,0.156789002,0.146395272,0.1353475,0.125359751,0.117429535,0.111517014,0.106843925,0.102479741,0.097822655,0.092755513,0.08749354,0.082314523,0.077368774,0.072656911,0.068133603,0.063828108,0.059876629,0.056422358,0.05342742,0.050522166,0.047053075,0.042428346,0.036708396,0.031213538,0.028831761,0.033765313,0.050645295,0.083209937,0.132957029,0.198277263,0.274457813,0.354653837,0.43153249,0.49901814,0.553519995,0.594263384,0.622727457,0.641541266,0.653333471,0.659959324,0.662284039,0.660433913,0.654254135,0.643690982,0.62893626,0.6103464,0.588270672,0.562942777,0.534516412,0.503221675,0.469544973,0.434337284,0.398782369,0.364235018,0.331991997,0.30307151,0.278073362,0.257137827,0.239988536,0.226031316,0.214482805,0.204508282,0.195349445,0.186418031,0.177346791,0.167996343,0.158426135,0.148840041,0.139505724,0.13066157,0.122436395,0.114815704,0.10767609,0.100871612,0.09432862,0.088085672,0.082248404,0.076861352,0.07176707,0.066539055,0.060592345,0.053490368,0.045390259,0.037477168,0.032175121,0.032980054,0.043847367,0.068235654,0.10805908,0.162878601,0.22963854,0.303090699,0.376827402,0.444629492,0.501726461,0.545596205,0.576098148,0.594969489,0.604911136,0.608603478,0.607982663,0.603951184,0.596525283,0.585265103,0.569757233,0.549939659,0.526203279,0.499258791,0.469912236,0.438874833,0.406706028,0.373897834,0.341021083,0.308836358,0.278276573,0.250310429,0.225738731,0.205014717,0.188164968,0.174809742,0.164276881,0.155751349,0.148424708,0.141609267,0.134810364,0.127752273,0.120369472,0.112761684,0.105135668,0.097744077,0.090824028,0.084562693,0.079079751,0.074428899,0.070590022,0.067462878,0.064825047,0.062308654,0.059423225,0.055658164,0.050698427,0.044722689,0.038707443,0.034614274,0.035339235,0.044338235,0.064918717,0.099384853,0.148214145,0.209591013,0.279488143,0.35233784,0.422136686,0.483655587,0.533388846,0.570000908,0.594168571,0.607975688,0.614070602,0.614884261,0.612098362,0.606452993,0.597860065,0.585746891,0.569471774,0.54866842,0.523475369,0.494594159,0.463145036,0.430467265,0.397839872,0.366308078,0.336587522,0.309100571,0.284075876,0.261656824,0.241947767,0.225014404,0.210820097,0.199206168,0.189836219,0.182241698,0.175870142,0.170134706,0.16450446,0.158560237,0.152031949,0.144811243,0.136958523,0.128660192,0.120197857,0.111920893,0.104215032,0.097449846,0.09188346,0.087552577,0.084166391,0.081093374,0.077483426,0.072539987,0.065880954,0.057921983,0.05005834,0.044671476,0.044817881,0.053709145,0.074107244,0.107704975,0.154676115,0.213422764,0.280664728,0.351833782,0.421784088,0.485677289,0.539795822,0.582087105,0.612284073,0.631597046,0.642075196,0.6459165,0.64494909,0.640281687,0.632294983,0.620804613,0.605333257,0.585391691,0.560746968,0.531570902,0.498544858,0.462763051,0.425630472,0.388627927,0.353042194,0.319837057,0.289577757,0.262462499,0.238467746,0.217456195,0.199257375,0.183649806,0.170326776,0.158906165,0.148930069,0.13994424,0.131577379,0.123552918,0.115738341,0.10803783,0.100392406,0.092676706,0.084774788,0.07660769,0.068240795,0.059958042,0.052237709,0.04560936,0.040418047,0.036561471,0.033361092,0.029704342,0.024515996,0.017374032,0.009074782,0.002051717,0,0.007199107,0.027308016,0.06233332,0.111901709,0.173289614,0.24203377,0.313007397,0.381401569,0.443512631,0.496986831,0.540817783,0.57493743,0.599998094,0.616976661,0.627026838,0.63134386,0.630927831,0.626627802,0.618950455,0.608145507,0.594169894,0.576843301,0.555983969,0.531596912,0.504004523,0.473964135,0.442583753,0.411290326,0.381550107,0.354634773,0.331478147,0.312422466,0.297411733,0.285884897,0.277198385,0.27054786,0.265308064,0.260999994,0.257327662,0.254111811,0.251308487,0.249007326,0.247152012,0.245773124,0.244706927,0.243814495,0.242807464,0.241624904,0.240272631,0.238960265,0.238104052,0.238023409,0.238882346,0.240499066,0.242199033,0.243180361,0.242780851,0.241122348,0.239464678,0.24035569,0.247293895,0.263976932,0.293420409,0.337047758,0.394122782,0.461859843,0.53567456,0.60995587,0.67869573,0.736524087,0.779584045,0.80670788,0.820277411,0.826324406,0.833418065,0.850026345,0.881032881,0.924366087,0.969712419,1,0.996127331,0.943553424,0.837879119,0.688062576,0.514524706,0.343419352,0.198803851,0.095782087,0.037515076,0.016382103,0.018994803,0.031558658,0.04459394,0.054375773,0.061740053,0.069712306,0.080721898,0.095411961,0.112284175,0.128893512,0.142931184,0.153169731,0.159682421,0.163418294,0.165877117,0.16812278,0.17072189,0.17359508,0.176353809,0.178556167,0.179986144,0.180652377,0.180799633,0.18062044,0.180213664,0.17929291,0.177679743,0.175096005,0.172110631,0.17015869,0.171826564,0.180525038,0.199778039,0.232230811,0.278600565,0.33715553,0.40348035,0.471771729,0.53599373,0.591025184,0.634135596,0.664716578,0.684296116,0.695144753,0.699646061,0.699661894,0.695826802,0.688337013,0.676984709,0.661595117,0.642231091,0.619335199,0.59329174,0.564655407,0.533805797,0.501148586,0.467138253,0.432747631,0.398868033,0.366647235,0.337363903,0.311544831,0.2896674,0.271457537,0.256621523,0.244206513,0.233657112,0.224059082,0.214733406,0.205080856,0.194745651,0.183680514,0.171941625,0.159863288,0.147626131,0.13599221,0.124974959,0.114980912,0.105679393,0.097251053,0.089201513,0.08147809,0.073989886,0.066588313,0.058952523,0.050723982,0.041518706,0.031390204,0.021137858,0.012651653,0.008534725,0.012624132,0.028133986,0.057872762,0.101885157,0.158914343,0.224678289,0.293906207,0.360737957,0.420175818,0.468993449,0.50570862,0.531112214,0.547309939,0.556731493,0.561428766,0.56300302,0.561666648,0.557220243,0.549063179,0.536553078,0.519804379,0.498999615,0.47488079,0.448465898,0.420624398,0.392021539,0.363160021,0.334870331,0.307744219,0.282520949,0.259971728,0.240556352,0.224535563,0.211704172,0.201824604,0.194399402,0.188682391,0.184006023,0.180040296,0.175959513,0.171792976,0.166963493,0.161662481,0.15574117,0.14980581,0.143589423
0.396399947,0.369184753,0.343201431,0.317870307,0.293622873,0.271623715,0.253088762,0.238599168,0.227788847,0.219520151,0.212362951,0.205077053,0.196900783,0.187619139,0.177474244,0.166983026,0.156723525,0.147168964,0.138632336,0.131303797,0.125285953,0.120548124,0.116820939,0.113531661,0.109862568,0.104937908,0.09809813,0.089225401,0.079083259,0.069585423,0.063859063,0.065989947,0.080434585,0.11118856,0.160858877,0.229821943,0.315691521,0.413335215,0.515577034,0.614488445,0.7029139,0.775762392,0.830694449,0.868072055,0.890283504,0.900715846,0.902703446,0.898740734,0.89012591,0.877039578,0.858927638,0.835006903,0.804739494,0.768173962,0.726088474,0.679907268,0.631424579,0.582447211,0.534501627,0.488705633,0.445806254,0.406304592,0.370572108,0.338900534,0.311478971,0.288328775,0.269243581,0.253777248,0.241294647,0.231061876,0.222332547,0.214403635,0.206650394,0.19856648,0.189816438,0.180277495,0.170041913,0.159375471,0.148653858,0.138301074,0.128736536,0.120323632,0.113313745,0.10778765,0.103601115,0.100347717,0.097367076,0.093841717,0.089017311,0.082537767,0.074826645,0.067402974,0.063012144,0.06547684,0.07921852,0.108467352,0.156272911,0.223534295,0.308340435,0.405892283,0.509140832,0.610049267,0.701158251,0.777000901,0.834946386,0.875245915,0.900334325,0.913685302,0.918629326,0.917492018,0.911244839,0.899664778,0.881847463,0.856845213,0.824211629,0.784308803,0.738336906,0.688136455,0.635861623,0.58362788,0.533219335,0.48591676,0.442474966,0.403231871,0.368282972,0.337632902,0.311259937,0.289086256,0.270898649,0.256280659,0.244597698,0.235044394,0.226739892,0.218846603,0.210684165,0.201809575,0.192041317,0.181423988,0.170154786,0.158509771,0.146804009,0.135394696,0.124702258,0.115200662,0.107332627,0.101344007,0.097090154,0.09391419,0.090700829,0.086158248,0.079293286,0.069960041,0.059315315,0.050023505,0.046111669,0.052458572,0.073982482,0.11465553,0.176518473,0.258905215,0.358100992,0.467617376,0.579137759,0.683980328,0.774718377,0.846497189,0.897662305,0.92954675,0.945552829,0.949881173,0.946324015,0.937449385,0.924322356,0.906723588,0.883696997,0.854210176,0.817731781,0.774592095,0.726068489,0.674208209,0.621458672,0.570216376,0.522422484,0.47931527,0.44139313,0.408562746,0.380380713,0.356277809,0.335691469,0.318097806,0.302988128,0.289847863,0.278170011,0.267496314,0.257455882,0.247775044,0.23825477,0.228733454,0.21905935,0.209089002,0.198715623,0.187921972,0.176843872,0.165817845,0.155371653,0.146114821,0.138515529,0.132613548,0.127791707,0.122765571,0.115911264,0.105927587,0.092661693,0.077794378,0.065059359,0.059796869,0.067882047,0.094323969,0.141979924,0.210792557,0.297749304,0.397492053,0.503308382,0.608195241,0.705778171,0.790996776,0.860542059,0.913036203,0.948929036,0.970104867,0.979262214,0.979209213,0.972255011,0.959843792,0.942490044,0.91997679,0.891715147,0.857148725,0.816107292,0.76904738,0.717146142,0.66223601,0.606588149,0.552579932,0.502315067,0.457291942,0.418215795,0.38501049,0.357014854,0.333279881,0.312853425,0.294963094,0.279067699,0.264806456,0.251905039,0.240093398,0.229065918,0.218487798,0.208032849,0.197429693,0.186494866,0.175142017,0.163373173,0.151272217,0.139020447,0.126932961,0.115481154,0.105243726,0.096742544,0.090180605,0.085186491,0.080733302,0.075385547,0.067911695,0.058116933,0.047585463,0.039970953,0.040590438,0.055332526,0.089177634,0.144809001,0.221774068,0.316442991,0.422713371,0.533175654,0.64037766,0.737900037,0.82108927,0.887403354,0.936380816,0.96927584,0.988446644,0.996640059,0.996347382,0.989380741,0.976735771,0.958704374,0.935131585,0.905701714,0.870181199,0.828601759,0.781399759,0.729521,0.674468277,0.618243417,0.563144714,0.511431176,0.464933982,0.424740982,0.391067842,0.363358237,0.340562136,0.321476911,0.30503122,0.290438858,0.277214634,0.265093283,0.253911228,0.243504488,0.233655659,0.224097808,0.214559594,0.204821178,0.19475226,0.184322698,0.173600826,0.162764119,0.152127505,0.142154707,0.133389009,0.126257978,0.120783566,0.116332788,0.111607378,0.105028463,0.095509665,0.083389906,0.071130955,0.063384017,0.066230819,0.085738116,0.126279076,0.189211143,0.272377636,0.370571195,0.476724053,0.58335699,0.683821684,0.773066153,0.847899476,0.906895304,0.950105875,0.978702109,0.994587206,1,0.997131089,0.987792003,0.973182114,0.953786813,0.929424371,0.899444832,0.863066651,0.819805343,0.769902908,0.714626385,0.656300114,0.597995084,0.542917693,0.493677281,0.45169617,0.416995967,0.388442837,0.36433065,0.343034762,0.323463193,0.305163474,0.288128267,0.272474085,0.258184165,0.245022982,0.232612557,0.220579566,0.208670643,0.196778929,0.184889548,0.172997856,0.161063832,0.149041115,0.136974119,0.125109945,0.113943109,0.104118801,0.096174311,0.090189282,0.085508423,0.080741603,0.074187785,0.064663507,0.052497504,0.040284803,0.032981614,0.037111927,0.059195582,0.103856843,0.172266571,0.2614997,0.36506198,0.474392824,0.580790529,0.677099416,0.758680872,0.823544225,0.871844597,0.905111362,0.925524747,0.935395073,0.936841301,0.931592476,0.920851952,0.905221456,0.884723105,0.858953061,0.827357166,0.789566508,0.745700172,0.696548628,0.643589769,0.588840805,0.534591385,0.483083628,0.436204169,0.395242408,0.360755604,0.332565259,0.309884249,0.291541867,0.276246765,0.26282153,0.250361721,0.238304344,0.226417438,0.214732757,0.203442296,0.192777354,0.18289278,0.173785683,0.165277139,0.157070538,0.148873568,0.140541989,0.132184642,0.124169874,0.11699888,0.111060863,0.106349521,0.102277892,0.097746174,0.091563344,0.083189876,0.073589586,0.065833855,0.065082506,0.077728835,0.109809346,0.165121674,0.243703626,0.34127905,0.449960622,0.560031538,0.662209681,0.749619778,0.818845357,0.869830708,0.904861448,0.927158896,0.939662037,0.944365998,0.942274211,0.933759994,0.919024516,0.898394515,0.872362475,0.841439802,0.805989982,0.766196685,0.72222327,0.674495402,0.623958153,0.572163434,0.521123736,0.47297579,0.4295758,0.392164057,0.361194957,0.336358948,0.31675965,0.301172247,0.288303988,0.276996099,0.266341336,0.255724433,0.244813951,0.233531347,0.222005333,0.210502443,0.19932565,0.188693448,0.178639793,0.168984113,0.159402197,0.149581999,0.139400844,0.129034566,0.118924918,0.109587331,0.101320475,0.09395081,0.086775844,0.0788319,0.06949946,0.059299385,0.050581858,0.047748325,0.056733213,0.083715338,0.133350675,0.207083887,0.302166974,0.411825804,0.526618717,0.636582936,0.733458543,0.812254884,0.871700155,0.913563337,0.941257997,0.958342476,0.967456736,0.96995312,0.966147241,0.955885902,0.939083049,0.915988646,0.887146991,0.8531686,0.814513801,0.771448085,0.724210039,0.6733053,0.619766677,0.565234965,0.511802067,0.461666212,0.416721715,0.378219203,0.34659018,0.321463651,0.301844448,0.286384594,0.273667857,0.262440087,0.251744715,0.240962408,0.229781537,0.218137801,0.20614964,0.194054199,0.182135071,0.170640415,0.159707043,0.149325988,0.139377855,0.129735922,0.12038666,0.111489479,0.10331273,0.096042733,0.089549898,0.083256512,0.076251159,0.067718642,0.05761557,0.047378524,0.040357852,0.041685846,0.057438713,0.093199573,0.152395032,0.234939654,0.33669348,0.450003953,0.565235651,0.672844392,0.765354915,0.83863971,0.892161593,0.92821575,0.950550571,0.962916382,0.968035649,0.967244714,0.960757241,0.948264425,0.929519845,0.904653562,0.874153684,0.838635731,0.798616423,0.754461412,0.706554033,0.65558518,0.602783928,0.549942058,0.499184914,0.452572459,0.411683538,0.377333957,0.349508831,0.327499468,0.310168766,0.296246669,0.284565612,0.274193564,0.264458228,0.254902007,0.245221208,0.235232454,0.22487746,0.214237315,0.203517224,0.192978677,0.182844897,0.173228743,0.164131989,0.155516219,0.147390044,0.139833128,0.132911217,0.126506289,0.120170328,0.113145976,0.104651859,0.094426928,0.083383402,0.074113395,0.070975979,0.079572009,0.105621534,0.153474221,0.224682625,0.317109121,0.424924904,0.539573815,0.651475757,0.751970866,0.834948291,0.897710236,0.940883471,0.967509812,0.981684059,0.987213686,0.986687964,0.981167903,0.970444599,0.953661585,0.930001059,0.899186378,0.861664766,0.818489207,0.771018539,0.720612879,0.668458929,0.615572745,0.562923138,0.511571786,0.462720648,0.417641646,0.377502668,0.343160266,0.314982421,0.292753213,0.275681375,0.262520652,0.251793422,0.242073895,0.232253832,0.221718194,0.21036865,0.198503582,0.18660632,0.175126993,0.164340409,0.154306665,0.144927786,0.136059175,0.127616668,0.119629315,0.112211457,0.105446022,0.099227304,0.093116627,0.086323641,0.077883318,0.067078971,0.0540276,0.040275172,0.02915216,0.025660468,0.035755611,0.065098145,0.117543751,0.193813306,0.290807902,0.401838513,0.517804529,0.629016891,0.727113292,0.806556979,0.865296663,0.904498763,0.927526821,0.938575219,0.941383917,0.938407258,0.930581965,0.917653169,0.898808268,0.873364087,0.841221853,0.80299736,0.759849035,0.713141416,0.664181882,0.614091329,0.563896204,0.514677675,0.46769217,0.424308352,0.385807153,0.353107833,0.326552642,0.305845104,0.290158551,0.27834339,0.269171415,0.261519175,0.254479117,0.2473882,0.239817268,0.231528957,0.222465226,0.212726108,0.202555324,0.192302827,0.182366042,0.173107339,0.164783212,0.157488901,0.151156535,0.145545113,0.140246833,0.13467814,0.128111033,0.119804982,0.109333462,0.097044482,0.084594654,0.07527329,0.073925495,0.08626329,0.117643741,0.171584529,0.248492994,0.345003036,0.454333247,0.567501497,0.675160895,0.769434182,0.845266275,0.900934398,0.937687843,0.958764559,0.968113701,0.969279613,0.964673281,0.955358345,0.941281992,0.921775605,0.896129819,0.864066483,0.82596361,0.782816694,0.736015751,0.687049567,0.637260835,0.587737305,0.539390517,0.493048863,0.449567034,0.409822257,0.374548557,0.344210535,0.318856803,0.29814539,0.281389543,0.267739672,0.25628381,0.246164733,0.236609387,0.226987002,0.216811607,0.205789268,0.193849256,0.181114424,0.16792331,0.154728498,0.142017125,0.130232813,0.119700902,0.11055936,0.102772787,0.09612611,0.090196574,0.084389937,0.078011611,0.070399039,0.061258349,0.051032873,0.041419124,0.035543209,0.037911561,0.053822281,0.08826607,0.14459321,0.223318857,0.321406809,0.432457206,0.547800525,0.658206288,0.755717482,0.835067219,0.894301337,0.934478912,0.958754329,0.971069063,0.975078338,0.973280277,0.966836191,0.955640328,0.938884141,0.915549251,0.884993414,0.847274722,0.803228518,0.754377738,0.702566568,0.649706632,0.597436649,0.547004073,0.499375469,0.455296391,0.415359833,0.38006374,0.349706884,0.324301117,0.303507827,0.286676687,0.272930141,0.26129875,0.250855429,0.240814051,0.230531382,0.219635442,0.207921704,0.195406469,0.182351758,0.169181354,0.156450242,0.144820038,0.134864637,0.126987709,0.121241485,0.117362658,0.114729548,0.112529392,0.109836673,0.105753755,0.099543612,0.091007485,0.080634831,0.070053001,0.062262731,0.061617185,0.073335735,0.102475035,0.152847222,0.225491037,0.318116622,0.424975676,0.537875751,0.647711346,0.746394552,0.828197073,0.890610094,0.934149475,0.961471955,0.976246646,0.982046838,0.981452654,0.9758173,0.965324385,0.949434357,0.927333595,0.89850443,0.862960862,0.821496645,0.775404768,0.726331332,0.676029172,0.625848447,0.577008365,0.530401914,0.4867674,0.446787567,0.411129647,0.380230532,0.354160496,0.332733004,0.315456991,0.301409666,0.289771469,0.279611077,0.270139717,0.260471674,0.250038142,0.238369299,0.225345439,0.211042109,0.195878452,0.180393139,0.165189704,0.150913143,0.138001157,0.126814674,0.117447801,0.109715941,0.103241548,0.097391262,0.0914142,0.084377443,0.075753748,0.06553258,0.054642772,0.04548041,0.041850381,0.048482226,0.070590015,0.112546407,0.176661791,0.262145845,0.364739469,0.477129429,0.590428863,0.69557207,0.785558232,0.856055177,0.906370756,0.938370668,0.955883185,0.962830821,0.962703467,0.95745847,0.947833002,0.933262195,0.912870855,0.885892477,0.852070047,0.812113453,0.767070327,0.718717435,0.668666704,0.618301253,0.568808563,0.521058027,0.475626155,0.433623718,0.395775937,0.36282858,0.335007739,0.312327911,0.294071231,0.27949818,0.267455052,0.256926883,0.247065749,0.237185383,0.22675083,0.215761239,0.204042638,0.191696058,0.17892855,0.166233827,0.154022899,0.142716491,0.132611719,0.124167611,0.117348846,0.111951177,0.10753322,0.103161237,0.097819146,0.090805919,0.081875015,0.071596249,0.061957355,0.056182837,0.058444865,0.0734961,0.105619327,0.157776183,0.230213753,0.320581603,0.423280589,0.530430092
0.115907603,0.11505443,0.111782922,0.10516971,0.095506978,0.084023538,0.072120854,0.060599342,0.049361061,0.037795013,0.025668416,0.014094735,0.006128438,0.006686705,0.021715046,0.056748342,0.115249987,0.197265641,0.298891804,0.412796583,0.52965243,0.640036246,0.736243391,0.813543554,0.870603925,0.909052342,0.932398856,0.944708667,0.949448634,0.94879981,0.943517652,0.933241396,0.917062514,0.894142847,0.864192498,0.827674385,0.785706986,0.73976077,0.691319926,0.641662648,0.591821081,0.542682281,0.49513549,0.450166896,0.408835792,0.372123511,0.340713532,0.314805219,0.294050905,0.277639615,0.264478807,0.25339866,0.243325661,0.233405677,0.22307019,0.212040375,0.20027564,0.187896219,0.175117584,0.162213455,0.149493632,0.137274498,0.125838432,0.115396813,0.106066141,0.097846279,0.090582604,0.08391484,0.077250796,0.06982754,0.060919286,0.050215189,0.038320013,0.027236252,0.020605578,0.023481526,0.041518536,0.079677065,0.140773976,0.224339994,0.326207153,0.439038914,0.553707737,0.661135308,0.754053481,0.828184001,0.882554017,0.918965328,0.940892277,0.952207772,0.956113386,0.954521117,0.947963034,0.935943879,0.917539562,0.892006545,0.85920764,0.819755634,0.77488708,0.726166533,0.67516452,0.623242262,0.571514349,0.52096633,0.472619935,0.427613676,0.3871205,0.352124991,0.32316618,0.300169362,0.282440547,0.268819889,0.257930718,0.248440416,0.239263842,0.229672539,0.219308035,0.208123768,0.196291225,0.184101673,0.171882892,0.15993969,0.148521455,0.137816283,0.127965199,0.119081864,0.111257317,0.104529864,0.098810682,0.093779326,0.088798956,0.082934975,0.075165739,0.064824914,0.052211509,0.039182045,0.029460288,0.028418453,0.042219381,0.076431411,0.134459526,0.216278485,0.317925707,0.431996925,0.549056168,0.659556222,0.755699088,0.832713068,0.889251184,0.926918424,0.949191545,0.960124534,0.963219474,0.960723337,0.953445979,0.941038875,0.922564709,0.897140217,0.864448256,0.824979954,0.779967517,0.731077504,0.680017905,0.628234059,0.576812132,0.526595842,0.478409181,0.433226334,0.392167218,0.356298516,0.326326631,0.302324924,0.283621469,0.268903035,0.256505273,0.244794207,0.232518511,0.21902704,0.20429361,0.188757812,0.173056122,0.157755729,0.143194375,0.129473859,0.116578948,0.104535043,0.093505817,0.083769105,0.075574075,0.068942939,0.063511743,0.058499131,0.052855931,0.045594573,0.036239682,0.025293126,0.014580665,0.007351135,0.008033996,0.021623245,0.052740601,0.104531472,0.177645115,0.269605993,0.374845433,0.485503029,0.592858554,0.689015345,0.768341908,0.828255243,0.869168329,0.89371635,0.905594312,0.90840413,0.904824508,0.89624867,0.88286681,0.86405983,0.838933243,0.806836879,0.767757818,0.722518434,0.67275163,0.620666396,0.568664025,0.518910998,0.472996255,0.431775312,0.395431255,0.363694845,0.336109412,0.312229827,0.291699417,0.274216778,0.259448677,0.246951641,0.236143717,0.226338852,0.216832597,0.207012577,0.196459442,0.185005577,0.172732789,0.159914651,0.146933064,0.134207187,0.122157446,0.111194897,0.101697321,0.093931291,0.08791369,0.083262713,0.079134314,0.074341456,0.067697494,0.058530155,0.047221357,0.035585481,0.026927758,0.025713986,0.036893034,0.06500019,0.113210328,0.182515259,0.271193689,0.374729789,0.486289563,0.597748966,0.701092394,0.789835337,0.860067425,0.910816261,0.943665624,0.961817959,0.968954069,0.968251285,0.96179647,0.950451472,0.93408127,0.911985369,0.883377673,0.847803932,0.805432264,0.757182599,0.704679678,0.650037429,0.595520502,0.543172167,0.494519805,0.450445382,0.411240171,0.376784903,0.346753627,0.320754855,0.298380733,0.279193109,0.262699732,0.248358372,0.235612148,0.223933852,0.212855457,0.201975938,0.190958686,0.1795353,0.167524348,0.154861463,0.14163017,0.12808235,0.114637666,0.101848479,0.090314514,0.0805399,0.072750651,0.06672711,0.061733588,0.056623566,0.05015351,0.041463148,0.030604802,0.018962065,0.009408463,0.006116132,0.014009137,0.037936252,0.081697166,0.147096479,0.233229606,0.336213018,0.449522965,0.56497112,0.674141141,0.769919076,0.847677679,0.905776951,0.945285433,0.969097661,0.980800376,0.983658193,0.979968821,0.970859758,0.95645003,0.936229328,0.909508361,0.875832601,0.835291023,0.788676137,0.737468571,0.683645957,0.62936048,0.576579295,0.526805794,0.480970657,0.439504045,0.402515287,0.369966456,0.341755045,0.317695081,0.297453231,0.280514655,0.266219438,0.253855713,0.242760277,0.232380896,0.222286838,0.212147545,0.201711329,0.190804209,0.179348289,0.167386492,0.155100852,0.142817021,0.130987864,0.120142523,0.110784465,0.103235766,0.097458489,0.092923662,0.088619034,0.083266244,0.075751966,0.065685859,0.053919358,0.042833649,0.03625402,0.038956865,0.0558596,0.091069639,0.146989922,0.223649572,0.318386836,0.425977615,0.539257555,0.650193087,0.751215417,0.836499098,0.902829902,0.949814117,0.97940123,0.994924246,1,0.997623387,0.989661082,0.976779923,0.958711684,0.93469801,0.903969046,0.866151391,0.821542538,0.771215913,0.716940223,0.660924884,0.605447037,0.552462084,0.503319491,0.458673831,0.41860172,0.382847431,0.351073071,0.32300932,0.298471339,0.277276544,0.25913684,0.243589251,0.229994706,0.217602062,0.205656237,0.193522945,0.180799155,0.16737651,0.153432139,0.139343891,0.125559074,0.112470547,0.100351404,0.08936557,0.079623525,0.071219858,0.06419845,0.058440802,0.053536554,0.048734609,0.043063413,0.03565034,0.026187883,0.015420758,0.005492134,0,0.003671498,0.021647317,0.058464086,0.116918767,0.197081057,0.295757451,0.406657295,0.521341846,0.630782505,0.727113787,0.805062488,0.862631954,0.900888758,0.923016071,0.933024401,0.934560098,0.930131975,0.920869081,0.90673101,0.886984296,0.860746852,0.827454011,0.7871682,0.740706007,0.689585516,0.63581697,0.581585635,0.528908472,0.479363575,0.433969502,0.393229165,0.35728054,0.326056838,0.299378852,0.276962051,0.258380339,0.243048485,0.230261511,0.219285059,0.209457718,0.200262247,0.191344106,0.182482993,0.173541154,0.164415369,0.15501438,0.145274528,0.135213717,0.125004004,0.115021068,0.105815745,0.097967571,0.091832785,0.087270312,0.083486678,0.079141898,0.072779625,0.063510061,0.05173367,0.039621866,0.031111413,0.031325471,0.045540999,0.077992933,0.130857748,0.203676523,0.293316089,0.394412392,0.500160515,0.603303076,0.697173314,0.776634045,0.838730421,0.882895565,0.910645236,0.924849029,0.928802458,0.925376815,0.916469679,0.902849062,0.884347888,0.860276006,0.829895101,0.792833804,0.749367922,0.700534025,0.648071792,0.594208714,0.541323561,0.491556737,0.446465079,0.406820154,0.372614676,0.343263526,0.317914844,0.295747849,0.276157241,0.25879018,0.243464782,0.230040532,0.218307035,0.207931354,0.198470946,0.189435054,0.180363937,0.170897342,0.160812956,0.150032181,0.138611927,0.126741184,0.114755097,0.103143959,0.092518318,0.083485263,0.076435122,0.071297628,0.067386853,0.063458006,0.058044274,0.050028756,0.039289457,0.027186452,0.016686985,0.012038225,0.018062448,0.039270296,0.079031683,0.138961588,0.218565254,0.315111814,0.423715933,0.537685917,0.649236566,0.75058241,0.835247366,0.899236615,0.941654611,0.96451902,0.971807905,0.968081249,0.957170156,0.941349585,0.921184841,0.895979303,0.864555882,0.826054354,0.780494784,0.728979126,0.673538307,0.616725399,0.561101789,0.508779537,0.46114303,0.418804665,0.38175998,0.349644222,0.321968218,0.298254083,0.27805554,0.260912461,0.246300883,0.233624255,0.22224793,0.211561969,0.201044018,0.190304207,0.179110122,0.167380203,0.155163485,0.142603555,0.129920391,0.117415101,0.105484702,0.094608557,0.085256372,0.07771641,0.071881586,0.067115363,0.062302478,0.056151823,0.047714562,0.03697509,0.025317307,0.015685873,0.012350807,0.020290089,0.044299304,0.088001377,0.15293041,0.237899491,0.338819509,0.44911511,0.560733125,0.665551671,0.75683577,0.83030713,0.884524763,0.920513981,0.940857347,0.948616498,0.946469005,0.936256386,0.918981893,0.895079102,0.864779372,0.82840163,0.786512874,0.739957772,0.689831154,0.637422179,0.58420113,0.531806687,0.482010035,0.436560312,0.396868362,0.363560651,0.336098573,0.312748981,0.291132082,0.269323854,0.247086258,0.226478102,0.211188114,0.20444642,0.206295081,0.211745048,0.211447273,0.195610587,0.160083566,0.111808014,0.070169305,0.062055167,0.111430934,0.227669936,0.398498216,0.591919678,0.767140475,0.889589044,0.942935004,0.932589826,0.879950962,0.811212864,0.746663849,0.695097261,0.654561431,0.617485622,0.576651801,0.529085539,0.476719312,0.424486907,0.377481259,0.338743632,0.308528645,0.284991304,0.265575331,0.248271275,0.232173446,0.2173157,0.204092979,0.192693681,0.18282031,0.173720939,0.164454034,0.154228251,0.142678619,0.129932846,0.116485188,0.102964147,0.089951988,0.07791791,0.067261182,0.058331688,0.051390705,0.046467048,0.043217327,0.040842142,0.038159082,0.033906545,0.027229786,0.018262695,0.008578968,0.001290177,0.00074587,0.011879275,0.03927214,0.086200604,0.153722926,0.240115692,0.340763689,0.448682381,0.555622266,0.653539124,0.736039805,0.799440352,0.843115529,0.869078049,0.880934031,0.882648785,0.877483194,0.867393839,0.85296008,0.83374803,0.808863404,0.777541159,0.739628292,0.695799399,0.64755771,0.596999626,0.546450115,0.498093096,0.453615704,0.414015141,0.379572739,0.350010202,0.32472533,0.303060391,0.284445592,0.268447508,0.254728634,0.242972597,0.232807491,0.223784577,0.21538564,0.207087935,0.198452669,0.189207656,0.179286593,0.168812108,0.158013168,0.147134879,0.136457429,0.126262873,0.116879212,0.10866608,0.101884989,0.096522175,0.092100886,0.087629762,0.081802688,0.073478489,0.062338286,0.049428559,0.037451753,0.030588412,0.033863523,0.052190597,0.089368836,0.147198304,0.224910789,0.319111159,0.424046972,0.532392647,0.636335295,0.728866784,0.804889828,0.861966639,0.900312038,0.922309418,0.931452327,0.931327974,0.924791538,0.913470444,0.897838034,0.877526975,0.851732365,0.819734748,0.781262322,0.736727643,0.68730818,0.634804285,0.581463867,0.52953343,0.480944201,0.437011489,0.398316586,0.364807097,0.336034456,0.311336127,0.290096111,0.271773441,0.255852459,0.241899035,0.229494811,0.218170832,0.207479904,0.197041878,0.18650439,0.175592065,0.164125985,0.152020853,0.139309078,0.126177939,0.1128982,0.09993745,0.087828236,0.077220238,0.068670272,0.062386024,0.058113523,0.054885917,0.051321839,0.045867342,0.03762085,0.026890007,0.01572649,0.007841275,0.008172783,0.021863318,0.053178989,0.104533489,0.17583372,0.26445154,0.365580051,0.472789407,0.578985397,0.677445688,0.762608571,0.831082555,0.881595105,0.915184057,0.934285197,0.942039015,0.94139186,0.934476488,0.922403832,0.905453406,0.883186803,0.854929918,0.820202022,0.779040343,0.732082309,0.680680616,0.626765262,0.572558481,0.520359422,0.471973335,0.428683577,0.390955318,0.358677731,0.331250455,0.307989142,0.288215665,0.271367021,0.25698479,0.244671519,0.233959277,0.224308834,0.215306617,0.206422742,0.19725268,0.187527897,0.177115724,0.165990772,0.154278696,0.142248135,0.130160757,0.118376103,0.107505235,0.098138162,0.090739043,0.085447513,0.081912709,0.0788938,0.075039811,0.068879345,0.059847484,0.049035286,0.039212705,0.034821866,0.041194784,0.063351751,0.104988927,0.167554293,0.249602233,0.347209261,0.454223024,0.563098246,0.666524057,0.75800444,0.832966588,0.889567006,0.928157056,0.951119078,0.961551717,0.96252268,0.956596608,0.945055283,0.928259252,0.906040401,0.87776157,0.843062493,0.801825709,0.754685253,0.702886004,0.648253525,0.592953216,0.5392384,0.488886322,0.443184313,0.402696772,0.367365681,0.336548084,0.310106469,0.287189455,0.26762394,0.250890587,0.236506941,0.22435057,0.213288336,0.203095107,0.193157472,0.183101821,0.172707773,0.16177197,0.15021043,0.138270973,0.125931779,0.113462394,0.10154359,0.090403545,0.080934099,0.073443566,0.068161877,0.064468615,0.060995775,0.05651241,0.049474379,0.039795323,0.02838364,0.018473499,0.014192627,0.020822999,0.043324505,0.085296851,0.148080115,0.230204379,0.327913782,0.434987788,0.543970746,0.647130279,0.737711861,0.811041022,0.865282942,0.901069195,0.920993461,0.928571439,0.927358352,0.919710989,0.907162699,0.890159377,0.867529217,0.839368843,0.803971594,0.762106948,0.714288516,0.661559952,0.606651658,0.55137196,0.498498824,0.450055578,0.406886883,0.369522963,0.337750415,0.311108859,0.288442831,0.269142176,0.252257446,0.238315659,0.226022514,0.215098147,0.205365504,0.195831396,0.186683409,0.177408738,0.167737709,0.157610048,0.147356019
0.281208205,0.270143767,0.258377403,0.245591452,0.232164777,0.218949532,0.206765649,0.195936678,0.186152348,0.176705169,0.166898249,0.156354008,0.145087975,0.133395428,0.121680769,0.110329093,0.099659851,0.089961975,0.081567269,0.074867363,0.070178728,0.067464314,0.066077694,0.064770305,0.062108414,0.057237562,0.050741713,0.045261373,0.045563138,0.057872345,0.088492762,0.142020277,0.219702672,0.318547993,0.431565296,0.549122018,0.661012684,0.758612472,0.836488223,0.893030957,0.929998235,0.951221069,0.961005104,0.962811356,0.958608387,0.94895483,0.933575335,0.912059197,0.884355076,0.850898834,0.812416906,0.76961531,0.723014198,0.673077212,0.620565847,0.566865342,0.514017576,0.464372533,0.420006916,0.382192724,0.351155522,0.32619465,0.306061433,0.289397571,0.275051748,0.262189907,0.25023411,0.238740996,0.227326718,0.215677943,0.203615825,0.191151696,0.17849283,0.165991091,0.154049482,0.143012641,0.13307792,0.124267073,0.116475917,0.109570793,0.103459803,0.098073004,0.093245692,0.088577412,0.083388563,0.07688743,0.06859098,0.058928798,0.049834541,0.045046761,0.049861037,0.070226491,0.111324277,0.176005553,0.263590719,0.369473873,0.485744388,0.602709005,0.710890781,0.802913182,0.874719111,0.925813704,0.95856048,0.97686587,0.984744419,0.985224478,0.979867998,0.968924317,0.951914548,0.928327162,0.898128263,0.861927316,0.820819463,0.776064274,0.728800761,0.679936408,0.63022958,0.580476325,0.531666714,0.485007303,0.441788732,0.403160264,0.369910448,0.342331873,0.320193155,0.302795889,0.289084488,0.277793679,0.267631009,0.257479635,0.246579299,0.23462912,0.221773649,0.208476528,0.19532873,0.18285798,0.171396905,0.161039707,0.151684937,0.143135244,0.135207924,0.127805105,0.120903078,0.114450352,0.108211803,0.101647866,0.093945997,0.084296967,0.072419503,0.059206402,0.047248914,0.040957308,0.046073488,0.068559035,0.113081753,0.181524389,0.272008406,0.378812315,0.493291547,0.605574089,0.706546149,0.789558286,0.851398726,0.892337435,0.915335771,0.924741476,0.924888654,0.918989538,0.908572521,0.893541434,0.872756126,0.844900296,0.809332099,0.766623123,0.718594809,0.667848068,0.616994747,0.567938827,0.521531439,0.477730117,0.436130653,0.396560085,0.359420138,0.325634803,0.296274416,0.272078237,0.253113754,0.238710953,0.22766591,0.21859672,0.210297051,0.201964941,0.193255793,0.184183408,0.174944473,0.165755307,0.15676456,0.148056382,0.139710443,0.131860942,0.124704877,0.118440241,0.113149041,0.108665335,0.104484633,0.099781422,0.09360047,0.085257553,0.074911417,0.064159607,0.056409836,0.05675299,0.071168856,0.105129784,0.161950274,0.241426915,0.339302635,0.447840821,0.557398203,0.658512965,0.743843167,0.809375365,0.854623027,0.881905601,0.895083202,0.898221358,0.894573827,0.886076202,0.873341063,0.856011333,0.833283111,0.804430374,0.769213376,0.728102956,0.682296213,0.63354032,0.583824273,0.535034765,0.488683078,0.445779554,0.406866808,0.372154008,0.341661123,0.315301983,0.292891009,0.274110876,0.258494895,0.245455149,0.234349025,0.224552262,0.21550975,0.206756888,0.197923927,0.188739433,0.179039317,0.168777406,0.158032154,0.147009194,0.136040908,0.12557506,0.116130281,0.108192256,0.102044966,0.097575778,0.094141571,0.090603775,0.085607873,0.07809631,0.067932327,0.056426513,0.046545749,0.042664338,0.049863895,0.07294008,0.115364699,0.178449538,0.260884504,0.358729462,0.465865918,0.574857346,0.678096645,0.769028101,0.843160459,0.898600556,0.935963329,0.957715213,0.967193476,0.96762754,0.961438814,0.949951761,0.933488633,0.911712923,0.88405918,0.850122372,0.809938878,0.764138071,0.713963991,0.661169597,0.607792815,0.55584922,0.507014848,0.462396791,0.422469998,0.387192859,0.356234395,0.329200775,0.305766235,0.285678981,0.268682274,0.254424348,0.242417461,0.232065595,0.222741324,0.213873926,0.205014314,0.19585918,0.186237599,0.176081468,0.165409597,0.154346719,0.143170974,0.132347328,0.122483301,0.114161419,0.107666102,0.102707447,0.098302926,0.092963667,0.085229148,0.074434707,0.061450645,0.049076926,0.041857871,0.045279973,0.06455378,0.10334903,0.162868558,0.241505382,0.335107672,0.4376936,0.542388559,0.642392028,0.731848807,0.806534859,0.864266305,0.904946464,0.93022306,0.942831773,0.945803283,0.941751504,0.932417581,0.918541857,0.90002659,0.876281417,0.846627436,0.810660688,0.768515108,0.720997002,0.669580776,0.616265831,0.563310715,0.512889958,0.466753311,0.4259833,0.390923854,0.3612909,0.336404846,0.315444277,0.297631549,0.282311823,0.26894358,0.25705026,0.246180889,0.235904071,0.225832957,0.215661594,0.205189363,0.194318769,0.183029122,0.17134779,0.159350258,0.1472082,0.135269094,0.124107216,0.114464853,0.107032944,0.102106142,0.099254618,0.097220654,0.094213055,0.088622116,0.079964597,0.069694969,0.061488794,0.06075974,0.073464124,0.104548752,0.156563608,0.228904331,0.317895216,0.417600592,0.521020233,0.621278535,0.712536792,0.790536257,0.852808954,0.898633141,0.928792373,0.945177073,0.950276485,0.946638824,0.936399592,0.920970391,0.900942227,0.876204048,0.846228444,0.810444544,0.768606981,0.72107746,0.668957391,0.614040927,0.558594298,0.50500664,0.455394803,0.411267381,0.373344773,0.341583047,0.31537354,0.293823451,0.276003041,0.261083363,0.248358919,0.237207952,0.227058099,0.217396927,0.207821299,0.198087188,0.188119085,0.177962668,0.16769885,0.15736249,0.14691235,0.136278523,0.125475747,0.114728746,0.104526913,0.095530895,0.088307012,0.082960536,0.078839131,0.074524126,0.068266426,0.058847337,0.046611796,0.034244751,0.026852344,0.031114324,0.053634677,0.09898404,0.168124104,0.257815206,0.361249076,0.469671669,0.574388725,0.668454477,0.747560605,0.810034678,0.856212155,0.887600546,0.906180717,0.913986841,0.91291484,0.904625442,0.890442003,0.871235574,0.847364122,0.818742483,0.785066823,0.746140305,0.702192425,0.654080824,0.603309248,0.551862455,0.501915574,0.455501462,0.414214157,0.379004245,0.350097353,0.327044243,0.308887026,0.29439913,0.282337277,0.271643608,0.261559574,0.251647799,0.241745884,0.231885041,0.222199567,0.212841829,0.203911225,0.195406419,0.187212905,0.179135091,0.170970909,0.162609349,0.154113396,0.145740822,0.137863637,0.130780503,0.124474388,0.118431188,0.111669704,0.103099854,0.092206946,0.079881403,0.06905328,0.064747817,0.073319124,0.100923377,0.151645293,0.225923447,0.319898638,0.426009745,0.534695254,0.636628067,0.72471397,0.795211927,0.847722064,0.884243448,0.907817685,0.921323682,0.926795587,0.925332279,0.917409784,0.903299761,0.883349786,0.858032697,0.827829027,0.793093045,0.754037925,0.710884532,0.664108644,0.614656544,0.56400905,0.514046457,0.466756164,0.423884444,0.386642055,0.355540242,0.330382943,0.31039668,0.294449061,0.281293536,0.269781188,0.258999911,0.248331982,0.237448089,0.226265426,0.214889083,0.203539212,0.192460824,0.18182467,0.171648088,0.161774974,0.151939663,0.141902654,0.131604992,0.121264616,0.11134764,0.10239157,0.094723934,0.088188693,0.082033273,0.075096299,0.066350632,0.055707329,0.044820044,0.037522517,0.039564222,0.057513645,0.097024474,0.160976453,0.248155815,0.353023771,0.466758042,0.579273309,0.681545144,0.767450306,0.83455064,0.88369163,0.91774631,0.940108537,0.953519164,0.959554208,0.958759984,0.951162021,0.936792495,0.915975073,0.889298081,0.857387125,0.820680186,0.77937769,0.733620419,0.683809521,0.630899422,0.576505303,0.522755103,0.471934626,0.426053805,0.386482094,0.353756231,0.327593298,0.307076023,0.290932426,0.277821064,0.266547329,0.256174926,0.246042842,0.235730111,0.225016741,0.213864252,0.202403759,0.190902599,0.1796868,0.169032995,0.159073945,0.149769663,0.140966373,0.132517057,0.124394573,0.11671879,0.109657812,0.103231312,0.097115614,0.09059163,0.082757598,0.073040934,0.061904419,0.051502597,0.045959876,0.050999066,0.072834242,0.116537778,0.184352852,0.274541636,0.381246471,0.495517852,0.60724937,0.707420232,0.789925196,0.852432754,0.896083419,0.924275298,0.941081556,0.949905053,0.952772161,0.950342182,0.942411048,0.928544092,0.908525599,0.882492274,0.850814438,0.813911558,0.772175962,0.726074708,0.676364711,0.624276158,0.571532117,0.520161198,0.472163849,0.429162882,0.392157664,0.36144472,0.336692362,0.317105671,0.301615505,0.28904519,0.278242784,0.268183801,0.258056306,0.247331719,0.235809901,0.223617111,0.21113881,0.198884843,0.187317309,0.176697173,0.167013354,0.158030524,0.149441022,0.141048095,0.132884359,0.125190525,0.118241998,0.112091921,0.106366104,0.100249975,0.092766594,0.083337822,0.072484494,0.0624203,0.057248429,0.062536864,0.084234961,0.127134134,0.193308337,0.28106039,0.384798602,0.495988708,0.60494567,0.702930133,0.783886709,0.845303467,0.888000598,0.915048727,0.930299441,0.937083738,0.937473131,0.932209542,0.921141946,0.903849848,0.880147674,0.850297493,0.81493069,0.774821444,0.730688982,0.683160787,0.6329091,0.580860139,0.528344945,0.477071301,0.428914525,0.385589194,0.348331485,0.317693727,0.293496473,0.274934212,0.260783798,0.249641715,0.240155512,0.231193328,0.221944865,0.211951562,0.20109066,0.189516141,0.177585038,0.165755799,0.154474814,0.144066029,0.134654846,0.12616373,0.118386338,0.111107009,0.104198928,0.097632686,0.091363237,0.085161292,0.078495273,0.070615229,0.06091962,0.049565915,0.038126424,0.03001147,0.030354274,0.045223096,0.080239124,0.138942763,0.221424168,0.323711614,0.438206467,0.555114456,0.664470483,0.758158267,0.831336167,0.882891488,0.914889193,0.931311826,0.936553939,0.934185271,0.926292872,0.913496854,0.895457435,0.871578355,0.841595835,0.805860337,0.765277408,0.721052767,0.674398298,0.626380667,0.57794613,0.530059389,0.483824485,0.44048981,0.401298668,0.36725528,0.338908667,0.316238378,0.298682545,0.285278058,0.274867472,0.266288958,0.258516948,0.250756208,0.242464827,0.233363125,0.223421021,0.212827507,0.201953894,0.191260099,0.181187297,0.172019925,0.163831381,0.156479386,0.14969953,0.143223223,0.136844113,0.130378728,0.123548901,0.11588625,0.106789149,0.095840854,0.08335707,0.071002781,0.062183471,0.061925343,0.07609515,0.110096619,0.167294389,0.247732741,0.347586057,0.459580887,0.574348964,0.682314253,0.775573908,0.849243469,0.901924146,0.935257206,0.952828058,0.958792632,0.956698234,0.948775702,0.935824652,0.917594866,0.893428388,0.862877391,0.826090378,0.783872737,0.737487397,0.68836448,0.637838299,0.58708517,0.537181867,0.489236042,0.444419007,0.403872101,0.368495337,0.338740034,0.314513357,0.295233354,0.280001701,0.267795186,0.257634864,0.248636854,0.240024832,0.231132764,0.221419628,0.210562353,0.198478063,0.18540705,0.17180243,0.158291284,0.145459519,0.133744482,0.123379302,0.11436786,0.106593145,0.099859425,0.09394395,0.08855061,0.083228713,0.077336773,0.070177173,0.061376238,0.051376152,0.04203833,0.036928521,0.041136334,0.060484103,0.100190901,0.163332052,0.249615315,0.354870439,0.471585772,0.590278418,0.701493006,0.79757119,0.87399291,0.929637336,0.966328595,0.9876734,0.99774532,1,0.996603386,0.988350053,0.974922624,0.955524528,0.929365363,0.89620967,0.856498383,0.811367145,0.762358471,0.711152529,0.659267861,0.607961335,0.558280176,0.511107434,0.467318894,0.427730287,0.393027299,0.363591582,0.339344301,0.319827506,0.304165826,0.291307281,0.280186544,0.269858592,0.259600534,0.248950757,0.237703487,0.225817402,0.213357274,0.200517221,0.187559328,0.174799949,0.162591284,0.151311832,0.141242248,0.132530717,0.125127741,0.118726196,0.112771229,0.106485113,0.09904525,0.089776621,0.078706109,0.066866966,0.056841483,0.052798926,0.060017308,0.084056009,0.129360747,0.197816486,0.287840343,0.394188103,0.508795871,0.622248729,0.725799484,0.812936419,0.880288446,0.927809845,0.957778085,0.973840725,0.979764241,0.978372105,0.971343424,0.959015268,0.940870125,0.916159129,0.884319041,0.845380845,0.800133231,0.750008001,0.696759454,0.642317995,0.588445126,0.536713867,0.488479202,0.444800061,0.406408567,0.373689957,0.346441831,0.324039376,0.305511421,0.289854427,0.276227136,0.263989677,0.25272686,0.242161435,0.231911357,0.221670779,0.211033221,0.199743469,0.187749509,0.175173546,0.162359203,0.149768103,0.137887633,0.127200582,0.118021161,0.110483653,0.104467161,0.09946053,0.094862031,0.089671232,0.082981769,0.074241347,0.06347403,0.052042107,0.042794476,0.039900247,0.048630928,0.074182319,0.120510241,0.188880288,0.277256108,0.380192852,0.489509513,0.59634442,0.692439732,0.772017934,0.832436255,0.873970309,0.899220879,0.911757586
0.065679013,0.067456195,0.067865182,0.066660862,0.063722051,0.058932815,0.052078387,0.042965306,0.031859005,0.020086212,0.01045842,0.007200458,0.01530475,0.039502563,0.083175456,0.147493354,0.230954053,0.329402556,0.436536964,0.544827522,0.646683648,0.735636034,0.807286584,0.859817581,0.89393744,0.912277353,0.918421427,0.915879891,0.907315576,0.894196481,0.876860489,0.85485601,0.827403609,0.793860322,0.754099009,0.708730907,0.659128587,0.607257349,0.555370094,0.505642038,0.459825922,0.419011008,0.383556888,0.353219965,0.3274063,0.305427305,0.286655252,0.270558185,0.256667919,0.244546591,0.233778673,0.223978208,0.214795775,0.205922349,0.197091845,0.188078951,0.178690491,0.168762133,0.158181163,0.146944891,0.135238183,0.123490429,0.112362158,0.102616601,0.094860283,0.089201986,0.084969066,0.080678705,0.074420507,0.06464601,0.051143704,0.035820509,0.022908223,0.018386972,0.028705741,0.059166089,0.11249257,0.188058796,0.281983739,0.38797988,0.498592844,0.606431071,0.70511973,0.789899401,0.857906544,0.908190331,0.941493893,0.959823474,0.96586531,0.962359256,0.951562484,0.934917823,0.912985297,0.885622311,0.852333246,0.812675522,0.766615353,0.714761148,0.65844238,0.599629928,0.540711911,0.484159414,0.432145291,0.38620479,0.347028908,0.314448614,0.28760955,0.265277364,0.246178553,0.229281777,0.213954018,0.199969088,0.187387815,0.176361148,0.16692602,0.15886565,0.151685821,0.144716103,0.137293694,0.128953973,0.119557301,0.109321823,0.098775923,0.088659098,0.079781365,0.072828688,0.068113922,0.065330488,0.063436086,0.060816353,0.055808994,0.047513683,0.036635539,0.026004124,0.020452147,0.025942823,0.048132871,0.090817606,0.15479218,0.237519593,0.333680876,0.436350223,0.538350605,0.633377436,0.716673746,0.785263747,0.837881952,0.874739598,0.897202103,0.907392043,0.907728922,0.90046002,0.887279318,0.869131498,0.846247032,0.818379457,0.785155926,0.746431287,0.702553856,0.654490148,0.603796574,0.552456827,0.502622465,0.456305587,0.41508125,0.379862294,0.350801969,0.327351625,0.30845533,0.292819717,0.279179077,0.266491318,0.25403723,0.241430227,0.228561586,0.215508436,0.202428505,0.189463381,0.176669342,0.163987982,0.15125916,0.138272178,0.124849888,0.110958372,0.09682167,0.082995906,0.070336304,0.059801566,0.052101541,0.047294697,0.044533698,0.042174068,0.038357316,0.031970874,0.023658331,0.016427857,0.015478177,0.027134038,0.057153155,0.108964651,0.182473126,0.273861048,0.376431062,0.482135027,0.583225371,0.673518512,0.749013372,0.807899498,0.850172369,0.877098593,0.890691157,0.89325432,0.887002864,0.873761377,0.854776931,0.830694253,0.801722638,0.76796821,0.729835467,0.688353261,0.645285161,0.602953672,0.563819267,0.529958055,0.502624846,0.482049148,0.467511169,0.45763437,0.450761735,0.445279796,0.439808245,0.433250688,0.424765829,0.413740613,0.399820746,0.382995538,0.363676248,0.342684525,0.321097225,0.299964,0.279989118,0.261307887,0.243466119,0.225633309,0.206979765,0.187070368,0.166108974,0.144917989,0.124639937,0.106265486,0.090184025,0.07598184,0.062655587,0.049264568,0.035848705,0.024262578,0.018510425,0.024277281,0.04762927,0.09320456,0.162484649,0.25278897,0.357425489,0.467024519,0.57164399,0.66294808,0.735752944,0.788506443,0.822697899,0.841583753,0.848798915,0.847345889,0.839189044,0.825380959,0.806453426,0.782782744,0.754759025,0.722761489,0.687066708,0.647836542,0.605254042,0.559759201,0.512256749,0.4641699,0.417289384,0.37346671,0.334267514,0.300704837,0.273122515,0.251231576,0.234253686,0.221110731,0.21061137,0.201606792,0.193106453,0.18435612,0.174884707,0.164523283,0.153391281,0.141839054,0.130342019,0.119362565,0.109221445,0.100030864,0.091721993,0.084153338,0.077237072,0.070999998,0.065523354,0.060774096,0.05641779,0.051748933,0.045858594,0.0380771,0.028605195,0.019126265,0.013126762,0.015683063,0.032613048,0.069110314,0.12820578,0.209539574,0.30889762,0.418755312,0.529739846,0.632598601,0.720076046,0.788135588,0.836204977,0.866476757,0.882615258,0.888382343,0.886642348,0.878984778,0.865924216,0.847425487,0.823436783,0.794196856,0.760251527,0.722277847,0.680894851,0.636609707,0.589937786,0.541614523,0.492755897,0.444852562,0.399575567,0.358469842,0.322660352,0.292675914,0.268429506,0.249325125,0.234425594,0.222621652,0.212772863,0.20381992,0.194879777,0.185329323,0.174869056,0.163546226,0.151715299,0.139926953,0.128763261,0.118665734,0.109817599,0.102127562,0.095318817,0.089072455,0.083139668,0.077348835,0.07149576,0.065191978,0.057810463,0.048665489,0.037476799,0.025021767,0.013734437,0.007940733,0.01347721,0.036628829,0.082581897,0.153820335,0.248991159,0.362668152,0.4861705,0.609244335,0.722125654,0.817385364,0.891050531,0.942754613,0.974989114,0.991793578,0.997346493,0.99488035,0.98617353,0.971645522,0.950885005,0.923334701,0.888862109,0.848039734,0.802096045,0.752627118,0.70123599,0.649268121,0.597740425,0.547452297,0.499174245,0.453780857,0.412241044,0.375467,0.344099403,0.318330184,0.297833329,0.281818353,0.269175696,0.258666143,0.249111372,0.239553924,0.229362703,0.218267322,0.206318075,0.193787941,0.181050188,0.168469859,0.156336371,0.144844019,0.134106934,0.12418317,0.115081543,0.106734313,0.098938013,0.091291354,0.08318651,0.073923529,0.0629994,0.050563714,0.037941345,0.02803232,0.025356868,0.035562216,0.064359251,0.116077439,0.192232648,0.290593121,0.405132767,0.526988253,0.646186776,0.753634481,0.842771919,0.910445096,0.956836776,0.984619361,0.997703017,1,0.994527586,0.982999443,0.965886507,0.942814323,0.91311661,0.87637138,0.832784566,0.783341233,0.72970879,0.673944159,0.618114612,0.56396669,0.512750387,0.465230939,0.421833149,0.38281115,0.348347375,0.31854568,0.293352513,0.272476182,0.255363684,0.241254736,0.229291414,0.2186417,0.208598546,0.198631923,0.188390195,0.177663241,0.166333224,0.154346228,0.141729919,0.128655938,0.11550725,0.102884636,0.09149424,0.081909273,0.074275017,0.06808961,0.062203636,0.055123022,0.045586011,0.033261582,0.019336009,0.006757135,0,0.004368011,0.024990482,0.065756864,0.128421498,0.2120438,0.312855311,0.424595058,0.539312178,0.648557877,0.744765029,0.82249672,0.879218883,0.915367237,0.933707129,0.938223556,0.932919016,0.920881553,0.903837478,0.882207868,0.855529349,0.823032078,0.784183738,0.739075561,0.688596849,0.634398224,0.578673926,0.523817111,0.472025341,0.42495422,0.383515679,0.3478751,0.317629468,0.292077892,0.270469301,0.252144278,0.236556389,0.223220147,0.211653487,0.201361985,0.191870858,0.182777926,0.173791446,0.164730604,0.155489921,0.145994112,0.136180581,0.126038068,0.115696729,0.105519086,0.096107043,0.088149538,0.082106317,0.077833516,0.074357828,0.070020996,0.063104223,0.052821039,0.040330628,0.029300217,0.025631634,0.036260554,0.067328152,0.122329922,0.200909824,0.298737466,0.408479844,0.521464424,0.62942244,0.72578439,0.806285855,0.868954874,0.913726452,0.941931496,0.955794471,0.957968483,0.951091743,0.937383961,0.918346185,0.894646474,0.866234853,0.832658285,0.793475868,0.748644999,0.698767726,0.645143673,0.589640141,0.534435471,0.481710152,0.433348306,0.390698948,0.354431879,0.324511699,0.300296246,0.280731471,0.2645912,0.250697033,0.238073829,0.226028673,0.214166111,0.202360264,0.190694676,0.179373503,0.168609886,0.158511629,0.148998771,0.13979044,0.130481984,0.120703239,0.110307999,0.099513072,0.088899704,0.079223673,0.071059512,0.064406981,0.058469882,0.051816166,0.043020755,0.031674006,0.019402474,0.010413542,0.011147741,0.028921683,0.069874516,0.136891909,0.228297137,0.33786466,0.456212263,0.573083275,0.67968241,0.770262641,0.842541291,0.897043575,0.935871847,0.961504838,0.976047793,0.981026805,0.977558738,0.966605722,0.949098113,0.9258632,0.897450747,0.864014196,0.825377276,0.781302632,0.731872449,0.677819659,0.620664122,0.56258919,0.506095847,0.453551384,0.406773534,0.366759956,0.333623361,0.306721064,0.284922895,0.26692633,0.251525397,0.237768432,0.224995766,0.212792498,0.200918107,0.18925458,0.177782814,0.166560015,0.155675856,0.145185289,0.135049524,0.125129733,0.115256732,0.105357587,0.095569343,0.086254126,0.077869233,0.070711508,0.064641507,0.058951596,0.052530326,0.044385685,0.034445943,0.024375156,0.018038899,0.021285062,0.040889629,0.082837212,0.150424598,0.24282543,0.354682039,0.476969453,0.598921193,0.710423715,0.804107367,0.87648698,0.927880979,0.961299599,0.980837301,0.99021133,0.991906378,0.987053606,0.975854744,0.95818422,0.934043628,0.903712889,0.867652102,0.826333571,0.780183498,0.729704622,0.675708174,0.619509236,0.562935957,0.508125168,0.457160548,0.411704931,0.372743606,0.340514947,0.314603695,0.29412462,0.277935023,0.264808782,0.253565418,0.243161891,0.232765157,0.22181103,0.210048036,0.197548865,0.184650291,0.171836894,0.159566467,0.14813025,0.13758518,0.127810894,0.118649281,0.110042636,0.10207587,0.094868387,0.088360678,0.08211153,0.0752742,0.0668489,0.056252295,0.044030757,0.032484911,0.025897602,0.030141901,0.051590397,0.095560695,0.164672905,0.257672645,0.369150457,0.490345865,0.610869642,0.720866004,0.81294749,0.883375342,0.932160203,0.962175886,0.977670054,0.982753493,0.980319203,0.971672199,0.956831058,0.935227603,0.906444838,0.870693483,0.828906423,0.782489282,0.732927776,0.681468296,0.629016675,0.57628259,0.524031168,0.473300293,0.425423307,0.381840062,0.34379108,0.312014315,0.286571423,0.26686546,0.251800714,0.240022664,0.230167319,0.221039242,0.211723538,0.201622814,0.190442348,0.178156674,0.164976221,0.15128322,0.137580976,0.124396695,0.112182967,0.101257332,0.091753853,0.083662716,0.076836324,0.071005852,0.065713861,0.060266439,0.053750888,0.045280726,0.034435744,0.021894198,0.010002053,0.003008267,0.006691327,0.027363493,0.070335739,0.138298436,0.230140487,0.340619739,0.46112886,0.581343012,0.691328452,0.783475955,0.853672368,0.901528921,0.929609214,0.942086064,0.943295319,0.936609403,0.923897931,0.905617854,0.881349273,0.850505258,0.812932269,0.769233404,0.720781824,0.669426087,0.617133907,0.565609284,0.516161312,0.469673029,0.426773136,0.387944861,0.353625649,0.32411243,0.299498451,0.279566626,0.263741132,0.251159331,0.240790655,0.231607141,0.222702802,0.213428214,0.203420754,0.192587278,0.181033169,0.168983056,0.156703457,0.144499599,0.132675021,0.12157836,0.1115603,0.102860058,0.095571213,0.089446503,0.083938502,0.078168398,0.071161252,0.062141365,0.050974863,0.038557534,0.027233963,0.020838112,0.024448334,0.04362142,0.083238877,0.146175658,0.23211711,0.337037745,0.45351926,0.572060259,0.682914524,0.778047159,0.852520127,0.905005231,0.937346516,0.953304048,0.957204977,0.952684962,0.941972217,0.925767704,0.90362862,0.874699692,0.838386172,0.794918642,0.745480179,0.692087598,0.637117879,0.582881371,0.53118405,0.483153018,0.439302019,0.399764037,0.364547012,0.333617534,0.307026613,0.284685024,0.266286929,0.251274857,0.238853017,0.228154813,0.218369217,0.208871573,0.199230033,0.18918854,0.178690893,0.167676234,0.156135655,0.144111231,0.131680387,0.119082203,0.106701462,0.095117594,0.084961531,0.076685922,0.070222936,0.064976615,0.059635688,0.052743261,0.043299171,0.031402703,0.018832961,0.009191882,0.007317411,0.018553487,0.047540444,0.097091288,0.167672005,0.257005211,0.360391333,0.471276849,0.582208031,0.685880766,0.776261399,0.849356607,0.903710423,0.940155511,0.961214223,0.970104286,0.970014062,0.963293068,0.951224318,0.934273814,0.912065328,0.883940139,0.849349926,0.808020546,0.760467008,0.707825268,0.651992198,0.595362401,0.540512445,0.489557301,0.444032353,0.40458786,0.371046508,0.342847343,0.319062731,0.29887807,0.281532567,0.266432626,0.253111344,0.241056552,0.229822815,0.218944538,0.208045524,0.196894088,0.185251315,0.173132156,0.160448396,0.147343791,0.133872998,0.120507491,0.107742769,0.096371364,0.087029477,0.079971115,0.074757801,0.070107637,0.06431583,0.055914137,0.044742357,0.032660942,0.023803744,0.023860522,0.039069826,0.074344256,0.131857917,0.210617843,0.306368546,0.412561982,0.521777729,0.627004767,0.722174221,0.80319769,0.867685841,0.915208109,0.946856971,0.964659954,0.9712284,0.969124483,0.96029643,0.945997664,0.926624679,0.901787954,0.871001075,0.833689175,0.78978765,0.739878476,0.685347565,0.628132124,0.570735623,0.515587556,0.464774542,0.419792561,0.381172697,0.348801036,0.321810751,0.299245928,0.280013341,0.263286974,0.2483269,0.234615378,0.221925923,0.209827482
0.652186587,0.665040566,0.67097383,0.665739463,0.648277914,0.620416229,0.585477699,0.546668791,0.506096778,0.464741157,0.423073495,0.38173841,0.34187391,0.305001779,0.272653675,0.245939874,0.225226318,0.210042342,0.199264089,0.191484239,0.185374534,0.179883388,0.174262547,0.168032591,0.160973248,0.153122597,0.144725766,0.136127025,0.127660182,0.119580213,0.112026865,0.10500192,0.098380843,0.09198717,0.085693176,0.079446706,0.073163081,0.066555024,0.05907807,0.050139182,0.039574525,0.028254725,0.018593179,0.014713189,0.022066287,0.046422735,0.092393752,0.161907907,0.253187108,0.360643575,0.475798671,0.58897138,0.691246068,0.776163292,0.840675898,0.885147202,0.912481421,0.926758203,0.93186739,0.930556115,0.924077307,0.912396799,0.894765305,0.870402506,0.839051003,0.801230308,0.758150845,0.711392446,0.662537009,0.612924256,0.563598764,0.515408008,0.469151631,0.425680479,0.38588186,0.350547304,0.320182666,0.294856872,0.274166813,0.25732984,0.243351073,0.231196594,0.219933422,0.208830248,0.197418251,0.185501351,0.173111067,0.160427092,0.147703055,0.135224452,0.123293866,0.112217864,0.102273872,0.093651042,0.086370502,0.080200244,0.074598224,0.06873836,0.061674586,0.052662168,0.041594168,0.02945202,0.018632219,0.01300126,0.01755405,0.037624185,0.077727678,0.140287391,0.224611996,0.326509338,0.438761531,0.552415891,0.658555557,0.750029573,0.822630088,0.875408336,0.910134938,0.930194608,0.939341695,0.940696913,0.936197153,0.926521474,0.911383418,0.890022674,0.861729103,0.826264633,0.784098089,0.736424115,0.684990154,0.631797994,0.578774237,0.527509606,0.479139396,0.434376734,0.393641902,0.357195253,0.325201346,0.297711161,0.2746034,0.255540984,0.239975912,0.227201898,0.216434131,0.206893327,0.197877126,0.188808037,0.179254696,0.168934178,0.157712877,0.145622986,0.13289626,0.119992171,0.107577224,0.096411902,0.087132522,0.079974569,0.07454833,0.06980733,0.064311412,0.056778116,0.04677996,0.035347207,0.02522987,0.020670416,0.026701411,0.04814029,0.088541044,0.149352977,0.229455002,0.325135824,0.430517959,0.538374528,0.641229403,0.732548161,0.807753359,0.864796579,0.904129121,0.928103436,0.940023361,0.94315533,0.939979862,0.931835006,0.918952843,0.900781181,0.876442054,0.845194124,0.806806609,0.761790247,0.711455805,0.657789956,0.603166374,0.54995255,0.500115843,0.454946755,0.414981018,0.380123008,0.349890978,0.323666536,0.300855896,0.280937369,0.263433664,0.247872945,0.233783701,0.220727304,0.208339532,0.196347144,0.184545747,0.172753401,0.160772366,0.148391235,0.135443974,0.121916995,0.108065177,0.094470576,0.081970045,0.071410412,0.063269516,0.057284104,0.052296772,0.046513143,0.038221599,0.026808794,0.013701065,0.002787139,0,0.012035194,0.044545179,0.100410155,0.178708624,0.274763208,0.381221534,0.489742962,0.592683482,0.684270947,0.761056589,0.821741063,0.866652438,0.89715432,0.915146417,0.922690599,0.921726277,0.913842042,0.900110253,0.881021908,0.856554996,0.826374899,0.79012283,0.747720383,0.699615093,0.646909744,0.591346151,0.535143057,0.480713799,0.430313711,0.385689202,0.347812785,0.316777978,0.291887289,0.271904912,0.25539068,0.241011631,0.227751277,0.214986876,0.202452363,0.190129517,0.178112659,0.166485475,0.155242039,0.144276149,0.133445566,0.12268824,0.112136633,0.102162863,0.093305567,0.086076694,0.080703459,0.076902672,0.073795513,0.070048676,0.064278113,0.055677492,0.044737978,0.033828285,0.027350734,0.031240349,0.051759919,0.093824095,0.159345557,0.246197869,0.348248014,0.456553288,0.561381485,0.654391261,0.730251956,0.787220163,0.82661474,0.851546038,0.865476292,0.871141035,0.870106608,0.862924482,0.849618006,0.830179556,0.804852847,0.774147761,0.738688353,0.699060957,0.655792163,0.609480971,0.561001138,0.511639048,0.463063144,0.417108654,0.375452329,0.33929766,0.309175884,0.284911512,0.265738785,0.250514611,0.23796139,0.226882317,0.216312063,0.205590139,0.194367063,0.182567385,0.170333364,0.157961182,0.145828826,0.134312936,0.123703663,0.114142014,0.105607208,0.097962589,0.091034077,0.084667075,0.078710661,0.07292138,0.066846237,0.059797934,0.051035847,0.040195862,0.027888404,0.016256172,0.009213949,0.012131885,0.030881985,0.070404352,0.133178105,0.218099101,0.320200779,0.431406189,0.542152084,0.643415239,0.728524417,0.794220135,0.840697542,0.870725311,0.888234969,0.896907753,0.899212138,0.896113995,0.887402869,0.87236746,0.850481871,0.821834722,0.787193104,0.747765491,0.704843108,0.659519328,0.612614021,0.564805521,0.516860813,0.469810057,0.424952483,0.383677238,0.347177712,0.316182414,0.29080567,0.270559705,0.25450435,0.241470665,0.230287732,0.21995854,0.209757588,0.199250024,0.188253346,0.176772739,0.164937484,0.152952186,0.141062204,0.129526103,0.118590638,0.108469031,0.099322987,0.091241168,0.08419986,0.077998547,0.072190573,0.066067413,0.05877862,0.049649643,0.03868495,0.027132776,0.017888394,0.015483911,0.025494842,0.053383102,0.103031899,0.175410507,0.267839843,0.374172919,0.485904231,0.593898077,0.69021432,0.769497406,0.82957592,0.871207246,0.897172799,0.911087508,0.916299905,0.915155423,0.908736747,0.897041669,0.879450341,0.855285629,0.824280839,0.786826433,0.743954414,0.697112542,0.647851725,0.597569938,0.547411433,0.498328867,0.45122546,0.407056392,0.366804184,0.331326663,0.30115437,0.276341569,0.256442282,0.240617547,0.227823196,0.217006406,0.207254504,0.1978723,0.188393358,0.178546577,0.16820424,0.157336741,0.145993257,0.134314521,0.12256403,0.111145126,0.100565145,0.091323343,0.083735102,0.077747798,0.072832994,0.068037498,0.062235776,0.054557838,0.044893392,0.034323521,0.025327666,0.021660427,0.027872893,0.048539188,0.08731865,0.146031838,0.2239572,0.317556134,0.420780661,0.52598657,0.625284598,0.711986055,0.781730876,0.832977795,0.86675843,0.885850202,0.893694549,0.893413712,0.887174827,0.875984934,0.859854356,0.838186472,0.810242418,0.77556243,0.734269229,0.687212905,0.635940669,0.582499756,0.5291171,0.47783904,0.430236085,0.38725835,0.3492665,0.316189866,0.287720222,0.26345826,0.242977878,0.225824916,0.211492405,0.199408566,0.188952649,0.17949527,0.170452025,0.161337366,0.151805399,0.141666662,0.130879212,0.119527061,0.107808168,0.096044953,0.084701753,0.074362789,0.065618407,0.058845708,0.053944371,0.0501617,0.046161071,0.040422195,0.031920311,0.02087524,0.009270564,0.000879696,0.000699532,0.013917641,0.044719482,0.09529125,0.165274849,0.251750455,0.349663614,0.452548157,0.553412754,0.645689417,0.724130887,0.785499589,0.828875526,0.855476891,0.868029309,0.869870649,0.864061637,0.852747831,0.83690794,0.816485428,0.790793204,0.759034033,0.720786326,0.676344974,0.626857122,0.574240538,0.520913665,0.469401743,0.421911817,0.379983256,0.344306133,0.31475147,0.29058451,0.270768291,0.254243393,0.240102476,0.227643277,0.216339957,0.205792492,0.195694551,0.185825765,0.176049654,0.166296492,0.156526979,0.146692927,0.136722384,0.126550808,0.116197976,0.105859985,0.095957767,0.087077688,0.079770885,0.074247412,0.070091283,0.066182451,0.060991765,0.053285839,0.043071191,0.032411773,0.025688714,0.029007843,0.048779857,0.08986837,0.153948571,0.238700185,0.338161435,0.444115151,0.54798542,0.642571314,0.723098078,0.78741376,0.835511397,0.868745172,0.889089346,0.898628893,0.899292312,0.892731119,0.880243169,0.86269507,0.840469161,0.813494593,0.781409308,0.743843889,0.700756913,0.652713697,0.601008671,0.547582814,0.494755944,0.444849834,0.399803325,0.360875476,0.328502127,0.302331627,0.281416028,0.264491735,0.250262218,0.23760677,0.225682462,0.213934394,0.202058071,0.1899526,0.177677471,0.165402001,0.153332232,0.141621131,0.130293992,0.119232275,0.10824263,0.097195477,0.086171432,0.075530615,0.065836671,0.057623476,0.0510778,0.045783526,0.040704907,0.034538276,0.026429094,0.01686899,0.008423547,0.005895807,0.015660063,0.044191374,0.096163054,0.172732573,0.27065906,0.382645001,0.498869466,0.609236295,0.705594299,0.783213485,0.841109946,0.881268696,0.907211658,0.922528817,0.929881915,0.930694837,0.925416232,0.914041108,0.896563817,0.873175678,0.84421491,0.81001412,0.770817758,0.726863239,0.678594484,0.626888552,0.573159108,0.519268981,0.467269919,0.4190651,0.376106997,0.339207888,0.308492347,0.283473991,0.263219976,0.246560287,0.232301602,0.21941109,0.207137528,0.195059515,0.183061663,0.171259944,0.159891545,0.149197453,0.139318126,0.130232782,0.121768634,0.11368297,0.105790968,0.098075159,0.090701757,0.08390749,0.077778403,0.072027378,0.065910343,0.058416846,0.04876449,0.037100915,0.025182078,0.016719052,0.017131497,0.032609936,0.068629868,0.128313342,0.211157965,0.312612795,0.42472998,0.537761459,0.642245911,0.730945673,0.800060405,0.849400967,0.881578163,0.900586816,0.910322733,0.913520384,0.911365622,0.90376284,0.889989088,0.869398269,0.841885576,0.807990932,0.768698539,0.725115119,0.67822743,0.628866424,0.577861517,0.526269583,0.475501978,0.427256966,0.383254798,0.344885314,0.312911329,0.287333124,0.267447558,0.252056025,0.239746082,0.229161291,0.219203665,0.209137733,0.198596205,0.187508375,0.175990272,0.164238772,0.152464069,0.140854131,0.129583665,0.118831282,0.108791697,0.099672749,0.091657166,0.084820905,0.079022381,0.073803323,0.068370751,0.061753567,0.053177353,0.042613812,0.031367483,0.022452312,0.02052214,0.031213727,0.059953424,0.11050558,0.183695579,0.276740592,0.383481381,0.495485069,0.603722041,0.700306769,0.779814494,0.839851456,0.880833185,0.905186636,0.916301669,0.917575113,0.911745647,0.900584234,0.884873893,0.864607212,0.839278776,0.808253288,0.771129978,0.728044743,0.679817502,0.627897633,0.574132138,0.520459887,0.468640752,0.420104351,0.375900745,0.336715201,0.302879763,0.274386235,0.250897278,0.231805601,0.216314825,0.203554144,0.19266431,0.182862043,0.173476634,0.163976941,0.153983068,0.143286441,0.131860798,0.119867879,0.107660529,0.095756676,0.084763729,0.075270323,0.067672662,0.061994003,0.057757443,0.053993398,0.049407396,0.042781184,0.033481437,0.021995873,0.010330353,0.002107807,0.00226866,0.016354453,0.049451755,0.104968145,0.183528572,0.282315097,0.395108496,0.513192187,0.626922964,0.727597267,0.809078492,0.868678045,0.907112617,0.927618644,0.934594341,0.932256136,0.923662655,0.910328216,0.892365269,0.8690167,0.839303774,0.802632714,0.759191876,0.710104024,0.657294093,0.603156765,0.550132708,0.500282692,0.455007051,0.414962661,0.380208195,0.350400409,0.325039101,0.303574995,0.2854301,0.269971544,0.256505813,0.244347613,0.232895277,0.221753434,0.210746819,0.199882575,0.189216951,0.178761887,0.16840808,0.157951543,0.147208922,0.136205366,0.125289008,0.115093502,0.106358665,0.099514225,0.094331435,0.089663552,0.083727428,0.074736412,0.061962445,0.046731681,0.032903863,0.026559095,0.034759345,0.06370709,0.116920191,0.194116928,0.291077816,0.400622229,0.514239218,0.6237739,0.722672224,0.806562557,0.873223736,0.92225116,0.954603991,0.972171829,0.977367551,0.972747527,0.960619052,0.942685737,0.91987632,0.892381891,0.859855731,0.821829768,0.77808205,0.728966668,0.675536191,0.619539556,0.563149821,0.508690381,0.458230435,0.4132997,0.374684102,0.342407297,0.315861104,0.294033725,0.275793514,0.260066885,0.24600564,0.232968749,0.220516105,0.2084055,0.196493221,0.184743853,0.173182595,0.161770307,0.150419014,0.138980832,0.127302055,0.115338573,0.103246243,0.091484069,0.080658002,0.071362212,0.063856067,0.057755782,0.052003343,0.045143378,0.036028547,0.024779596,0.013646964,0.007359786,0.012540798,0.036283831,0.084053702,0.1578572,0.255089899,0.368823862,0.489360398,0.606483754,0.711781582,0.800008942,0.869475767,0.92124836,0.957807347,0.981836526,0.9954522,1,0.996242922,0.984818592,0.966400153,0.941671073,0.911273213,0.875483133,0.834336068,0.787765929,0.735998845,0.679926689,0.621199729,0.562176214,0.505522098,0.453688516,0.408505229,0.370817951,0.34049936,0.31656354,0.297635186,0.282185668,0.268844888,0.256591031,0.244726538,0.232815507,0.220635857,0.208131761,0.195451573,0.182776924,0.17033604,0.158366903,0.146876232,0.135867575,0.12519378,0.114963634,0.10529041,0.096412909,0.088381101,0.080964866,0.073347868,0.064547243,0.053920787,0.041685354,0.029881683,0.022536935,0.025314213,0.044705597,0.086187951,0.152723144,0.243319236,0.35277796,0.472507604,0.592112812,0.701723341,0.79391812,0.86493778,0.914783962,0.946314812,0.963711122,0.97090947,0.970733853,0.964405731,0.951855893
